# OpenSignals Text File Format
# {"00:07:80:3B:46:61": {"sensor": ["GONIO", "GONIO"], "device name": "00:07:80:3B:46:61", "column": ["nSeq", "DI", "CH1", "CH2"], "sync interval": 2, "time": "12:2:48.912", "comments": "", "device connection": "BTH00:07:80:3B:46:61", "channels": [1, 2], "date": "2017-1-17", "mode": 0, "digital IO": [0, 1], "firmware version": 772, "device": "biosignalsplux", "position": 0, "sampling rate": 100, "label": ["CH1", "CH2"], "resolution": [16, 16], "special": [{}, {}]}}
# EndOfHeader
0	0	36376	47016	
1	0	36324	47028	
2	0	36376	47032	
3	0	36312	47018	
4	0	36388	46976	
5	0	36292	46705	
6	0	36368	47024	
7	0	36316	46944	
8	0	36360	47072	
9	0	36320	47104	
10	0	36368	47008	
11	0	36312	47080	
12	0	36372	47048	
13	0	36304	47128	
14	0	36384	47056	
15	0	36320	47072	
16	0	36394	46952	
17	0	36320	47064	
18	0	36372	47056	
19	0	36320	46936	
20	0	36384	46904	
21	0	36328	47104	
22	0	36394	46968	
23	0	36324	46808	
24	0	36400	47064	
25	0	36320	47114	
26	0	36376	46940	
27	0	36328	47128	
28	0	36392	47042	
29	0	36304	47130	
30	0	36385	46952	
31	0	36320	47050	
32	0	36368	47040	
33	0	36312	47064	
34	0	36384	47072	
35	0	36314	47112	
36	0	36408	46904	
37	0	36320	47112	
38	0	36376	47040	
39	0	36296	47096	
40	0	36352	46888	
41	0	36312	47108	
42	0	36344	46988	
43	0	36312	47008	
44	0	36368	47080	
45	0	36272	47080	
46	0	36368	46968	
47	0	36296	46964	
48	0	36352	47050	
49	0	36272	47154	
50	0	36340	47004	
51	0	36296	47154	
52	0	36376	47088	
53	0	36282	47160	
54	0	36362	47044	
55	0	36296	47018	
56	0	36337	47064	
57	0	36280	47122	
58	0	36368	47080	
59	0	36306	47114	
60	0	36353	47064	
61	0	36288	46864	
62	0	36344	47088	
63	0	36268	47008	
64	0	36328	47124	
65	0	36284	47090	
66	0	36345	47080	
67	0	36264	47112	
68	0	36352	47090	
69	0	36272	47144	
70	0	36312	46952	
71	0	36272	47160	
72	0	36336	47056	
73	0	36240	46940	
74	0	36320	47096	
75	0	36256	47184	
76	0	36334	47144	
77	0	36288	47152	
78	0	36338	47136	
79	0	36272	47064	
80	0	36336	47120	
81	0	36266	47160	
82	0	36338	47104	
83	0	36252	47176	
84	0	36344	47160	
85	0	36258	46772	
86	0	36328	47032	
87	0	36256	47120	
88	0	36332	47080	
89	0	36268	47080	
90	0	36320	47124	
91	0	36244	47162	
92	0	36336	47080	
93	0	36260	47168	
94	0	36324	47040	
95	0	36248	47168	
96	0	36298	47120	
97	0	36234	47144	
98	0	36272	47136	
99	0	36192	47208	
100	0	36276	47072	
101	0	36192	47097	
102	0	36268	46704	
103	0	36204	47136	
104	0	36284	47080	
105	0	36208	47050	
106	0	36280	47136	
107	0	36248	47120	
108	0	36288	47116	
109	0	36208	47168	
110	0	36280	46968	
111	0	36220	46850	
112	0	36296	47048	
113	0	36200	47144	
114	0	36296	47130	
115	0	36216	46880	
116	0	36280	47076	
117	0	36224	47200	
118	0	36280	47048	
119	0	36208	46906	
120	0	36272	47136	
121	0	36227	47168	
122	0	36276	47160	
123	0	36200	47090	
124	0	36304	47088	
125	0	36216	47168	
126	0	36264	47104	
127	0	36186	47193	
128	0	36292	47136	
129	0	36192	47208	
130	0	36288	47056	
131	0	36221	47184	
132	0	36292	47130	
133	0	36200	47104	
134	0	36304	47032	
135	0	36208	47152	
136	0	36274	47048	
137	0	36224	47192	
138	0	36304	47136	
139	0	36240	47128	
140	0	36312	46944	
141	0	36208	47168	
142	0	36272	47072	
143	0	36217	47176	
144	0	36298	47032	
145	0	36224	47096	
146	0	36304	47090	
147	0	36200	47072	
148	0	36274	47104	
149	0	36194	46720	
150	0	36256	47114	
151	0	36204	47096	
152	0	36304	47096	
153	0	36224	46906	
154	0	36312	47112	
155	0	36210	47184	
156	0	36304	47080	
157	0	36210	47136	
158	0	36288	47066	
159	0	36196	47160	
160	0	36280	46992	
161	0	36202	47098	
162	0	36288	47072	
163	0	36192	47160	
164	0	36274	47032	
165	0	36184	47186	
166	0	36292	47144	
167	0	36192	47162	
168	0	36306	46904	
169	0	36216	47184	
170	0	36304	46724	
171	0	36208	47152	
172	0	36272	47152	
173	0	36200	47184	
174	0	36272	47088	
175	0	36217	46728	
176	0	36288	47032	
177	0	36216	47184	
178	0	36280	47136	
179	0	36224	47152	
180	0	36300	47096	
181	0	36208	47184	
182	0	36312	47010	
183	0	36234	47192	
184	0	36298	46778	
185	0	36232	47176	
186	0	36304	47128	
187	0	36218	46736	
188	0	36320	46984	
189	0	36244	47088	
190	0	36304	47090	
191	0	36224	47168	
192	0	36313	47112	
193	0	36232	46944	
194	0	36306	47152	
195	0	36234	47096	
196	0	36296	46956	
197	0	36232	47096	
198	0	36304	47019	
199	0	36216	47124	
200	0	36298	47096	
201	0	36200	47064	
202	0	36252	47072	
203	0	36168	47152	
204	0	36248	47072	
205	0	36184	47136	
206	0	36272	47072	
207	0	36177	46968	
208	0	36282	46970	
209	0	36200	46816	
210	0	36296	46976	
211	0	36192	47000	
212	0	36288	46744	
213	0	36192	47024	
214	0	36288	47008	
215	0	36185	46784	
216	0	36288	46912	
217	0	36184	46984	
218	0	36228	46952	
219	0	36180	46968	
220	0	36224	46976	
221	0	36160	46956	
222	0	36220	46825	
223	0	36160	47024	
224	0	36224	46884	
225	0	36144	47018	
226	0	36260	46892	
227	0	36128	46764	
228	0	36224	46880	
229	0	36138	46978	
230	0	36256	46848	
231	0	36152	46560	
232	0	36224	46888	
233	0	36160	46700	
234	0	36236	46920	
235	0	36112	46949	
236	0	36192	46692	
237	0	36112	46826	
238	0	36184	46848	
239	0	36088	46920	
240	0	36168	46784	
241	0	36096	46824	
242	0	36184	46832	
243	0	36080	46784	
244	0	36176	46816	
245	0	36096	46832	
246	0	36138	46816	
247	0	36074	46808	
248	0	36112	46779	
249	0	36048	46772	
250	0	36112	46816	
251	0	36016	46816	
252	0	36096	46777	
253	0	36000	46778	
254	0	36072	46736	
255	0	35985	46720	
256	0	36040	46756	
257	0	35960	46792	
258	0	36056	46692	
259	0	35956	46720	
260	0	36028	46712	
261	0	35932	46784	
262	0	36008	46496	
263	0	35930	46712	
264	0	36002	46624	
265	0	35920	46692	
266	0	35984	46248	
267	0	35904	46672	
268	0	35984	46586	
269	0	35866	46672	
270	0	35960	46572	
271	0	35864	46672	
272	0	35920	46576	
273	0	35860	46640	
274	0	35944	46584	
275	0	35856	46624	
276	0	35914	46568	
277	0	35864	46656	
278	0	35952	46536	
279	0	35888	46600	
280	0	35944	46528	
281	0	35888	46488	
282	0	35972	46496	
283	0	35897	46466	
284	0	35976	46480	
285	0	35912	46464	
286	0	35970	46386	
287	0	35884	46492	
288	0	35968	46448	
289	0	35892	46456	
290	0	36000	46264	
291	0	35915	46236	
292	0	35992	46356	
293	0	35928	46416	
294	0	35972	46073	
295	0	35912	46368	
296	0	35980	46300	
297	0	35912	46348	
298	0	35968	46160	
299	0	35880	46276	
300	0	35952	46232	
301	0	35921	46336	
302	0	35976	46128	
303	0	35912	46288	
304	0	36000	46232	
305	0	35896	46112	
306	0	36008	46172	
307	0	35896	46168	
308	0	35988	46136	
309	0	35904	46144	
310	0	36000	45962	
311	0	35938	46080	
312	0	36024	46064	
313	0	35945	45728	
314	0	36032	46032	
315	0	35960	45652	
316	0	36074	45952	
317	0	36000	46000	
318	0	36106	45880	
319	0	36036	45960	
320	0	36128	45708	
321	0	36032	45496	
322	0	36136	45700	
323	0	36040	45888	
324	0	36132	45496	
325	0	36056	45560	
326	0	36160	45608	
327	0	36068	45682	
328	0	36176	45640	
329	0	36120	45657	
330	0	36208	45552	
331	0	36144	45616	
332	0	36256	45540	
333	0	36136	45424	
334	0	36232	45256	
335	0	36104	45472	
336	0	36224	45384	
337	0	36120	45428	
338	0	36216	45368	
339	0	36160	45160	
340	0	36260	45139	
341	0	36186	45264	
342	0	36268	45240	
343	0	36176	45216	
344	0	36264	45114	
345	0	36146	45186	
346	0	36220	45040	
347	0	36152	45064	
348	0	36220	45016	
349	0	36088	44944	
350	0	36160	44954	
351	0	36088	45032	
352	0	36130	44872	
353	0	36032	44920	
354	0	36120	44664	
355	0	36000	44912	
356	0	36080	44820	
357	0	35984	44784	
358	0	36036	44728	
359	0	35960	44536	
360	0	36036	44528	
361	0	35938	44512	
362	0	36064	44674	
363	0	35936	44680	
364	0	36032	44504	
365	0	35922	44392	
366	0	36032	44504	
367	0	35928	44544	
368	0	36000	44236	
369	0	35924	44448	
370	0	36024	44352	
371	0	35920	44296	
372	0	36032	44272	
373	0	35984	44312	
374	0	36082	44168	
375	0	35988	44096	
376	0	36100	44048	
377	0	35992	43968	
378	0	36106	43896	
379	0	36028	43888	
380	0	36129	43584	
381	0	36062	43648	
382	0	36144	43722	
383	0	36060	43704	
384	0	36200	43609	
385	0	36124	43330	
386	0	36236	43272	
387	0	36140	43376	
388	0	36284	43364	
389	0	36176	43297	
390	0	36280	43208	
391	0	36224	43264	
392	0	36336	42848	
393	0	36248	43104	
394	0	36360	42936	
395	0	36288	42976	
396	0	36385	42896	
397	0	36328	42496	
398	0	36448	42568	
399	0	36362	42624	
400	0	36449	42624	
401	0	36385	42434	
402	0	36480	42388	
403	0	36429	42532	
404	0	36492	42224	
405	0	36424	42432	
406	0	36512	42020	
407	0	36426	42220	
408	0	36512	42112	
409	0	36420	42168	
410	0	36520	42088	
411	0	36408	42152	
412	0	36496	41992	
413	0	36376	42042	
414	0	36504	41892	
415	0	36388	41748	
416	0	36512	41728	
417	0	36420	41720	
418	0	36544	41440	
419	0	36424	41640	
420	0	36544	41472	
421	0	36420	41312	
422	0	36516	41376	
423	0	36416	41384	
424	0	36536	41120	
425	0	36426	41208	
426	0	36544	40900	
427	0	36441	40976	
428	0	36536	40744	
429	0	36424	40937	
430	0	36520	40800	
431	0	36408	40744	
432	0	36520	40560	
433	0	36408	40584	
434	0	36504	40516	
435	0	36408	40532	
436	0	36520	40416	
437	0	36420	40440	
438	0	36536	40296	
439	0	36464	40288	
440	0	36552	40144	
441	0	36466	40172	
442	0	36536	40032	
443	0	36464	39920	
444	0	36552	39636	
445	0	36452	39754	
446	0	36544	39716	
447	0	36448	39724	
448	0	36524	39456	
449	0	36482	39396	
450	0	36536	39474	
451	0	36488	39516	
452	0	36584	39368	
453	0	36496	39416	
454	0	36608	39144	
455	0	36496	39170	
456	0	36560	39152	
457	0	36466	39040	
458	0	36544	38864	
459	0	36472	38753	
460	0	36572	38872	
461	0	36476	38856	
462	0	36544	38804	
463	0	36448	38712	
464	0	36541	38488	
465	0	36452	38568	
466	0	36540	38537	
467	0	36464	38608	
468	0	36588	38472	
469	0	36448	38418	
470	0	36586	38112	
471	0	36472	38188	
472	0	36576	38084	
473	0	36512	38058	
474	0	36578	38116	
475	0	36494	38068	
476	0	36592	37992	
477	0	36480	37992	
478	0	36568	37712	
479	0	36476	37892	
480	0	36556	37656	
481	0	36458	37832	
482	0	36546	37632	
483	0	36472	37592	
484	0	36544	37520	
485	0	36448	37448	
486	0	36528	37484	
487	0	36470	37472	
488	0	36568	37226	
489	0	36448	37384	
490	0	36538	37308	
491	0	36448	37176	
492	0	36576	37228	
493	0	36450	37120	
494	0	36552	37032	
495	0	36466	37194	
496	0	36540	37056	
497	0	36436	37057	
498	0	36552	37016	
499	0	36468	37002	
500	0	36538	36888	
501	0	36440	36984	
502	0	36554	36852	
503	0	36440	36808	
504	0	36552	36804	
505	0	36432	36795	
506	0	36528	36737	
507	0	36420	36660	
508	0	36512	36480	
509	0	36428	36584	
510	0	36512	36562	
511	0	36420	36624	
512	0	36520	36466	
513	0	36402	36528	
514	0	36520	36248	
515	0	36416	36448	
516	0	36536	36272	
517	0	36432	36264	
518	0	36548	36200	
519	0	36432	36384	
520	0	36516	36096	
521	0	36432	36208	
522	0	36522	36204	
523	0	36424	36248	
524	0	36544	36024	
525	0	36440	36192	
526	0	36560	35968	
527	0	36452	36098	
528	0	36568	35944	
529	0	36488	35992	
530	0	36576	36064	
531	0	36488	36040	
532	0	36584	35944	
533	0	36472	35820	
534	0	36568	35892	
535	0	36472	35944	
536	0	36562	35728	
537	0	36480	35722	
538	0	36584	35776	
539	0	36466	35784	
540	0	36600	35642	
541	0	36496	35768	
542	0	36584	35616	
543	0	36456	35520	
544	0	36560	35424	
545	0	36456	35500	
546	0	36524	35272	
547	0	36416	35448	
548	0	36512	35200	
549	0	36440	35360	
550	0	36536	35250	
551	0	36448	35208	
552	0	36520	35220	
553	0	36434	35168	
554	0	36544	34976	
555	0	36416	35168	
556	0	36544	35120	
557	0	36408	35024	
558	0	36536	35050	
559	0	36456	35082	
560	0	36560	34962	
561	0	36456	35040	
562	0	36544	34860	
563	0	36464	34914	
564	0	36552	34706	
565	0	36440	34800	
566	0	36544	34634	
567	0	36456	34808	
568	0	36552	34536	
569	0	36441	34688	
570	0	36524	34608	
571	0	36416	34548	
572	0	36480	34344	
573	0	36408	34410	
574	0	36500	34465	
575	0	36384	34368	
576	0	36470	34226	
577	0	36363	34305	
578	0	36449	34288	
579	0	36355	34344	
580	0	36432	34152	
581	0	36346	34148	
582	0	36424	34144	
583	0	36328	34136	
584	0	36440	34016	
585	0	36324	34196	
586	0	36424	33880	
587	0	36304	34088	
588	0	36400	33984	
589	0	36308	34024	
590	0	36410	33960	
591	0	36320	33978	
592	0	36424	33792	
593	0	36306	33952	
594	0	36396	33728	
595	0	36284	33866	
596	0	36384	33760	
597	0	36288	33904	
598	0	36392	33876	
599	0	36308	33848	
600	0	36396	33792	
601	0	36280	33849	
602	0	36394	33824	
603	0	36290	33816	
604	0	36400	33700	
605	0	36300	33780	
606	0	36400	33746	
607	0	36268	33720	
608	0	36384	33696	
609	0	36272	33764	
610	0	36376	33658	
611	0	36256	33736	
612	0	36370	33586	
613	0	36272	33680	
614	0	36352	33696	
615	0	36266	33808	
616	0	36370	33716	
617	0	36260	33776	
618	0	36344	33548	
619	0	36252	33776	
620	0	36340	33704	
621	0	36228	33860	
622	0	36352	33696	
623	0	36232	33672	
624	0	36300	33680	
625	0	36232	33680	
626	0	36328	33708	
627	0	36240	33748	
628	0	36360	33634	
629	0	36240	33768	
630	0	36316	33779	
631	0	36228	33762	
632	0	36352	33728	
633	0	36256	33824	
634	0	36360	33624	
635	0	36234	33772	
636	0	36324	33704	
637	0	36256	33752	
638	0	36344	33760	
639	0	36248	33876	
640	0	36360	33672	
641	0	36274	33848	
642	0	36338	33592	
643	0	36232	33856	
644	0	36336	33728	
645	0	36248	33720	
646	0	36360	33736	
647	0	36272	33738	
648	0	36380	33784	
649	0	36240	33896	
650	0	36352	33808	
651	0	36256	33970	
652	0	36338	33792	
653	0	36260	33809	
654	0	36362	33712	
655	0	36264	33960	
656	0	36345	33816	
657	0	36272	33944	
658	0	36368	33812	
659	0	36240	33995	
660	0	36360	33904	
661	0	36296	33888	
662	0	36370	33976	
663	0	36274	33944	
664	0	36368	33808	
665	0	36288	34048	
666	0	36362	33912	
667	0	36274	34048	
668	0	36360	33832	
669	0	36304	34058	
670	0	36385	33845	
671	0	36297	34024	
672	0	36392	33880	
673	0	36258	34050	
674	0	36352	33914	
675	0	36272	33888	
676	0	36338	33864	
677	0	36280	34080	
678	0	36360	33936	
679	0	36272	33992	
680	0	36360	33947	
681	0	36260	33898	
682	0	36370	33938	
683	0	36270	33952	
684	0	36356	33928	
685	0	36234	34048	
686	0	36360	33812	
687	0	36272	34034	
688	0	36352	33840	
689	0	36252	33992	
690	0	36346	33976	
691	0	36260	34056	
692	0	36340	33960	
693	0	36240	34040	
694	0	36328	33828	
695	0	36232	34034	
696	0	36328	33824	
697	0	36232	34094	
698	0	36328	33928	
699	0	36248	34064	
700	0	36368	33952	
701	0	36266	34064	
702	0	36388	33992	
703	0	36274	34122	
704	0	36373	34000	
705	0	36288	33964	
706	0	36362	34000	
707	0	36280	34072	
708	0	36394	34016	
709	0	36288	34088	
710	0	36372	33900	
711	0	36266	34094	
712	0	36368	34036	
713	0	36264	34048	
714	0	36354	33924	
715	0	36272	33960	
716	0	36384	34072	
717	0	36288	34128	
718	0	36352	33970	
719	0	36296	34011	
720	0	36384	33888	
721	0	36264	34112	
722	0	36370	33876	
723	0	36264	34068	
724	0	36352	34062	
725	0	36260	34020	
726	0	36368	34048	
727	0	36260	33968	
728	0	36368	34009	
729	0	36244	34160	
730	0	36330	33938	
731	0	36256	33968	
732	0	36368	34050	
733	0	36265	34073	
734	0	36354	34000	
735	0	36248	34112	
736	0	36356	33900	
737	0	36256	33968	
738	0	36352	33856	
739	0	36256	34088	
740	0	36345	33936	
741	0	36248	33952	
742	0	36331	33944	
743	0	36232	34064	
744	0	36324	33904	
745	0	36234	33952	
746	0	36344	33896	
747	0	36240	34072	
748	0	36332	33936	
749	0	36256	34084	
750	0	36344	33928	
751	0	36236	33992	
752	0	36344	33778	
753	0	36250	34068	
754	0	36336	33888	
755	0	36260	34064	
756	0	36306	33968	
757	0	36240	33940	
758	0	36328	33848	
759	0	36232	34072	
760	0	36320	33936	
761	0	36224	33964	
762	0	36306	33944	
763	0	36234	34084	
764	0	36330	33992	
765	0	36233	33952	
766	0	36336	34048	
767	0	36244	34180	
768	0	36352	34026	
769	0	36248	34028	
770	0	36344	34096	
771	0	36225	34248	
772	0	36336	34016	
773	0	36224	34256	
774	0	36336	34122	
775	0	36265	34264	
776	0	36352	34220	
777	0	36280	34288	
778	0	36352	34168	
779	0	36288	34424	
780	0	36385	34272	
781	0	36272	34417	
782	0	36362	34208	
783	0	36272	34320	
784	0	36368	34424	
785	0	36292	34480	
786	0	36362	34432	
787	0	36256	34388	
788	0	36360	34440	
789	0	36284	34602	
790	0	36361	34378	
791	0	36272	34536	
792	0	36392	34592	
793	0	36312	34696	
794	0	36422	34698	
795	0	36338	34632	
796	0	36424	34592	
797	0	36336	34720	
798	0	36444	34668	
799	0	36352	34776	
800	0	36424	34744	
801	0	36344	35072	
802	0	36427	35056	
803	0	36344	35160	
804	0	36456	35072	
805	0	36372	35260	
806	0	36456	35344	
807	0	36372	35482	
808	0	36488	35489	
809	0	36392	35672	
810	0	36504	35610	
811	0	36392	35720	
812	0	36472	35856	
813	0	36392	35928	
814	0	36491	36016	
815	0	36354	36192	
816	0	36416	36160	
817	0	36320	36120	
818	0	36385	36264	
819	0	36296	36377	
820	0	36364	36296	
821	0	36308	36536	
822	0	36378	36480	
823	0	36288	36546	
824	0	36416	36532	
825	0	36324	36632	
826	0	36433	36744	
827	0	36338	36912	
828	0	36434	36930	
829	0	36348	36996	
830	0	36448	37056	
831	0	36340	37256	
832	0	36400	37074	
833	0	36332	37252	
834	0	36368	37344	
835	0	36280	37540	
836	0	36336	37533	
837	0	36256	37584	
838	0	36336	37698	
839	0	36232	37810	
840	0	36289	37760	
841	0	36202	37984	
842	0	36272	38040	
843	0	36204	38032	
844	0	36284	38112	
845	0	36184	38226	
846	0	36256	38352	
847	0	36152	38368	
848	0	36224	38476	
849	0	36116	38620	
850	0	36204	38352	
851	0	36100	38572	
852	0	36180	38664	
853	0	36096	38616	
854	0	36160	38712	
855	0	36044	38992	
856	0	36124	38994	
857	0	36048	39144	
858	0	36112	38924	
859	0	36000	39252	
860	0	36121	39120	
861	0	36000	39498	
862	0	36080	39376	
863	0	35988	39488	
864	0	36056	39684	
865	0	35972	39790	
866	0	36032	39840	
867	0	35928	39913	
868	0	36024	39872	
869	0	35928	40032	
870	0	36004	40044	
871	0	35928	40176	
872	0	36018	40228	
873	0	35936	40508	
874	0	36028	40570	
875	0	35888	40576	
876	0	35987	40576	
877	0	35888	40768	
878	0	35968	40628	
879	0	35856	41104	
880	0	35944	40980	
881	0	35848	41028	
882	0	35896	41336	
883	0	35860	41288	
884	0	35928	41518	
885	0	35820	41628	
886	0	35912	41672	
887	0	35804	41832	
888	0	35896	41914	
889	0	35784	41963	
890	0	35868	41948	
891	0	35786	42064	
892	0	35818	42096	
893	0	35768	42210	
894	0	35848	42392	
895	0	35728	42536	
896	0	35778	42409	
897	0	35700	42368	
898	0	35776	42700	
899	0	35672	42640	
900	0	35762	42514	
901	0	35688	43044	
902	0	35784	42810	
903	0	35692	43120	
904	0	35754	42918	
905	0	35674	43272	
906	0	35768	43112	
907	0	35676	43280	
908	0	35771	43392	
909	0	35692	43376	
910	0	35796	43448	
911	0	35700	43584	
912	0	35792	43488	
913	0	35684	43736	
914	0	35760	43496	
915	0	35692	43744	
916	0	35784	43776	
917	0	35674	44042	
918	0	35760	43800	
919	0	35648	43920	
920	0	35732	43796	
921	0	35634	44272	
922	0	35680	44016	
923	0	35584	44292	
924	0	35664	44219	
925	0	35556	44448	
926	0	35648	44536	
927	0	35564	44580	
928	0	35664	44512	
929	0	35536	44588	
930	0	35616	44784	
931	0	35516	44808	
932	0	35608	44688	
933	0	35520	44964	
934	0	35600	44928	
935	0	35554	45080	
936	0	35664	45112	
937	0	35537	45264	
938	0	35656	45224	
939	0	35576	45328	
940	0	35668	45384	
941	0	35592	45236	
942	0	35680	45472	
943	0	35624	45608	
944	0	35744	45600	
945	0	35676	45720	
946	0	35808	45728	
947	0	35745	45824	
948	0	35852	45760	
949	0	35800	45880	
950	0	35904	45848	
951	0	35840	45936	
952	0	35960	45944	
953	0	35856	45808	
954	0	35944	45992	
955	0	35832	46088	
956	0	35920	46016	
957	0	35832	46144	
958	0	35936	45940	
959	0	35834	46168	
960	0	35928	46124	
961	0	35828	46176	
962	0	35928	46136	
963	0	35856	46192	
964	0	35904	46120	
965	0	35832	46176	
966	0	35928	46016	
967	0	35816	46136	
968	0	35897	45984	
969	0	35817	45824	
970	0	35884	46176	
971	0	35794	46240	
972	0	35904	46168	
973	0	35808	46336	
974	0	35896	46146	
975	0	35776	46224	
976	0	35888	46324	
977	0	35810	46424	
978	0	35909	46208	
979	0	35808	46056	
980	0	35896	46378	
981	0	35812	46544	
982	0	35900	46412	
983	0	35808	46506	
984	0	35904	46488	
985	0	35792	46628	
986	0	35892	46632	
987	0	35800	46560	
988	0	35920	46720	
989	0	35824	46824	
990	0	35920	46794	
991	0	35832	46824	
992	0	35906	46832	
993	0	35832	46882	
994	0	35952	46944	
995	0	35873	47000	
996	0	35984	47064	
997	0	35916	47052	
998	0	35976	47074	
999	0	35946	47184	
1000	0	36048	47056	
1001	0	35968	47224	
1002	0	36068	47240	
1003	0	36000	47224	
1004	0	36088	47072	
1005	0	36032	47392	
1006	0	36144	47336	
1007	0	36048	47480	
1008	0	36170	47380	
1009	0	36114	47552	
1010	0	36224	47480	
1011	0	36140	47624	
1012	0	36256	47664	
1013	0	36170	47728	
1014	0	36260	47664	
1015	0	36192	47818	
1016	0	36280	47731	
1017	0	36204	47856	
1018	0	36272	47688	
1019	0	36208	47872	
1020	0	36304	47872	
1021	0	36204	47872	
1022	0	36296	47652	
1023	0	36216	47904	
1024	0	36288	48024	
1025	0	36204	48100	
1026	0	36280	48092	
1027	0	36208	48008	
1028	0	36272	48144	
1029	0	36148	48256	
1030	0	36256	48168	
1031	0	36160	48320	
1032	0	36204	48216	
1033	0	36112	48296	
1034	0	36170	48080	
1035	0	36073	48392	
1036	0	36176	48300	
1037	0	36060	48492	
1038	0	36136	48496	
1039	0	36052	48544	
1040	0	36154	48464	
1041	0	36072	48552	
1042	0	36196	48104	
1043	0	36120	48648	
1044	0	36192	48632	
1045	0	36120	48664	
1046	0	36192	48632	
1047	0	36088	48728	
1048	0	36176	48680	
1049	0	36072	48656	
1050	0	36188	48688	
1051	0	36064	48656	
1052	0	36136	48688	
1053	0	36032	48754	
1054	0	36152	48680	
1055	0	36016	48728	
1056	0	36132	48656	
1057	0	36032	48664	
1058	0	36136	48610	
1059	0	36064	48208	
1060	0	36164	48528	
1061	0	36042	48609	
1062	0	36164	48536	
1063	0	36056	48578	
1064	0	36176	48504	
1065	0	36100	48456	
1066	0	36200	48456	
1067	0	36134	48432	
1068	0	36220	48384	
1069	0	36160	48544	
1070	0	36224	48360	
1071	0	36128	48496	
1072	0	36232	48512	
1073	0	36144	48528	
1074	0	36242	48562	
1075	0	36200	48596	
1076	0	36280	48512	
1077	0	36178	48584	
1078	0	36304	48648	
1079	0	36236	48736	
1080	0	36312	48632	
1081	0	36244	48688	
1082	0	36336	48676	
1083	0	36274	48680	
1084	0	36352	48736	
1085	0	36306	48794	
1086	0	36370	48696	
1087	0	36306	48800	
1088	0	36416	48562	
1089	0	36336	48744	
1090	0	36482	48704	
1091	0	36385	48768	
1092	0	36480	48656	
1093	0	36440	48712	
1094	0	36490	48722	
1095	0	36408	48704	
1096	0	36503	48352	
1097	0	36416	48298	
1098	0	36488	48760	
1099	0	36408	48772	
1100	0	36512	48752	
1101	0	36440	48784	
1102	0	36504	48720	
1103	0	36425	48808	
1104	0	36488	48604	
1105	0	36420	48842	
1106	0	36520	48762	
1107	0	36426	48736	
1108	0	36524	48778	
1109	0	36448	48832	
1110	0	36520	48792	
1111	0	36449	48896	
1112	0	36544	48816	
1113	0	36448	48856	
1114	0	36512	48851	
1115	0	36408	48720	
1116	0	36474	48800	
1117	0	36384	48904	
1118	0	36456	48760	
1119	0	36392	48804	
1120	0	36512	48848	
1121	0	36440	48858	
1122	0	36520	48872	
1123	0	36440	48912	
1124	0	36528	48832	
1125	0	36440	48748	
1126	0	36528	48808	
1127	0	36452	48792	
1128	0	36552	48772	
1129	0	36496	48748	
1130	0	36612	48704	
1131	0	36528	48648	
1132	0	36608	48722	
1133	0	36532	48832	
1134	0	36620	48472	
1135	0	36552	48752	
1136	0	36618	48612	
1137	0	36506	48880	
1138	0	36632	48784	
1139	0	36536	48790	
1140	0	36620	48800	
1141	0	36524	48840	
1142	0	36632	48832	
1143	0	36520	48896	
1144	0	36608	48836	
1145	0	36522	48808	
1146	0	36640	48760	
1147	0	36568	48832	
1148	0	36640	48788	
1149	0	36548	48920	
1150	0	36656	48868	
1151	0	36602	48898	
1152	0	36696	48768	
1153	0	36636	48896	
1154	0	36730	48800	
1155	0	36674	48720	
1156	0	36764	48808	
1157	0	36710	48888	
1158	0	36776	48740	
1159	0	36712	48872	
1160	0	36824	48880	
1161	0	36776	48920	
1162	0	36842	48848	
1163	0	36820	48882	
1164	0	36864	48856	
1165	0	36780	48672	
1166	0	36864	48904	
1167	0	36832	48944	
1168	0	36896	48876	
1169	0	36825	48912	
1170	0	36916	48896	
1171	0	36842	48848	
1172	0	36923	48776	
1173	0	36836	48888	
1174	0	36908	48816	
1175	0	36800	48928	
1176	0	36904	48896	
1177	0	36828	48800	
1178	0	36944	48900	
1179	0	36872	48772	
1180	0	36960	48760	
1181	0	36860	48920	
1182	0	36961	48760	
1183	0	36872	48772	
1184	0	36976	48760	
1185	0	36868	48792	
1186	0	36960	48804	
1187	0	36892	48760	
1188	0	36968	48528	
1189	0	36874	48752	
1190	0	36920	48723	
1191	0	36844	48808	
1192	0	36920	48800	
1193	0	36816	48808	
1194	0	36920	48760	
1195	0	36848	48780	
1196	0	36928	48292	
1197	0	36856	48784	
1198	0	36928	48512	
1199	0	36866	48704	
1200	0	36944	48666	
1201	0	36856	48616	
1202	0	36970	48648	
1203	0	36872	48672	
1204	0	36980	48656	
1205	0	36888	48656	
1206	0	36976	48548	
1207	0	36860	48696	
1208	0	36976	48609	
1209	0	36884	48584	
1210	0	36946	48520	
1211	0	36880	48658	
1212	0	36968	48536	
1213	0	36884	48656	
1214	0	36960	48544	
1215	0	36888	48584	
1216	0	36944	48484	
1217	0	36880	48560	
1218	0	36964	48496	
1219	0	36864	48556	
1220	0	36960	48456	
1221	0	36897	48520	
1222	0	36992	48464	
1223	0	36938	48420	
1224	0	37040	48064	
1225	0	36970	48492	
1226	0	37068	48410	
1227	0	37000	48500	
1228	0	37104	48432	
1229	0	37032	48480	
1230	0	37096	48008	
1231	0	37060	48496	
1232	0	37108	48452	
1233	0	37052	48512	
1234	0	37136	48416	
1235	0	37024	48456	
1236	0	37080	48392	
1237	0	37042	48160	
1238	0	37120	48427	
1239	0	37024	48505	
1240	0	37104	48208	
1241	0	37018	48432	
1242	0	37096	48337	
1243	0	37008	48456	
1244	0	37120	48392	
1245	0	37020	48416	
1246	0	37056	48312	
1247	0	37004	48496	
1248	0	37088	48432	
1249	0	37008	48240	
1250	0	37056	48352	
1251	0	36985	48088	
1252	0	37068	48392	
1253	0	36992	48444	
1254	0	37076	48272	
1255	0	36976	48384	
1256	0	37060	48329	
1257	0	37001	48472	
1258	0	37088	48368	
1259	0	37008	48507	
1260	0	37080	48020	
1261	0	37009	48496	
1262	0	37128	48384	
1263	0	37020	48488	
1264	0	37076	48016	
1265	0	37010	48458	
1266	0	37084	48128	
1267	0	37018	48508	
1268	0	37120	48336	
1269	0	37048	48488	
1270	0	37136	48216	
1271	0	37040	48458	
1272	0	37112	48032	
1273	0	37040	48440	
1274	0	37112	48208	
1275	0	37034	48466	
1276	0	37088	48360	
1277	0	37017	48368	
1278	0	37104	48384	
1279	0	37032	48420	
1280	0	37133	48024	
1281	0	37008	48024	
1282	0	37128	48332	
1283	0	37049	48408	
1284	0	37136	48236	
1285	0	37064	48152	
1286	0	37144	48288	
1287	0	37060	48258	
1288	0	37148	48280	
1289	0	37064	48312	
1290	0	37140	48256	
1291	0	37068	48184	
1292	0	37152	48224	
1293	0	37049	48160	
1294	0	37120	48144	
1295	0	37024	48234	
1296	0	37120	48186	
1297	0	36992	48208	
1298	0	37120	48090	
1299	0	37024	48184	
1300	0	37112	48152	
1301	0	37010	48136	
1302	0	37088	48096	
1303	0	36996	48096	
1304	0	37064	48088	
1305	0	37000	47732	
1306	0	37072	48052	
1307	0	36974	48056	
1308	0	37080	48040	
1309	0	36968	48096	
1310	0	37080	48024	
1311	0	36988	47908	
1312	0	37080	47952	
1313	0	36968	48000	
1314	0	37080	47920	
1315	0	37016	47952	
1316	0	37128	47928	
1317	0	37024	47930	
1318	0	37108	47803	
1319	0	37032	47876	
1320	0	37096	47736	
1321	0	36992	47840	
1322	0	37080	47744	
1323	0	36978	47680	
1324	0	37073	47728	
1325	0	36984	47768	
1326	0	37050	47664	
1327	0	36968	47682	
1328	0	37060	47584	
1329	0	36984	47616	
1330	0	37088	47538	
1331	0	37012	47200	
1332	0	37074	47488	
1333	0	37008	47496	
1334	0	37096	47320	
1335	0	37008	47400	
1336	0	37108	47334	
1337	0	37016	47200	
1338	0	37112	47264	
1339	0	36992	47224	
1340	0	37076	47136	
1341	0	36992	47128	
1342	0	37056	47040	
1343	0	36956	47064	
1344	0	37048	46956	
1345	0	36940	46993	
1346	0	37016	46900	
1347	0	36900	46800	
1348	0	36992	46768	
1349	0	36896	46536	
1350	0	36956	46642	
1351	0	36872	46712	
1352	0	36944	46576	
1353	0	36860	46568	
1354	0	36936	46504	
1355	0	36800	46136	
1356	0	36864	46352	
1357	0	36776	46240	
1358	0	36850	46152	
1359	0	36768	46144	
1360	0	36824	46032	
1361	0	36764	45608	
1362	0	36832	45864	
1363	0	36796	45804	
1364	0	36864	45684	
1365	0	36820	45480	
1366	0	36888	45480	
1367	0	36824	45420	
1368	0	36914	45324	
1369	0	36837	44944	
1370	0	36896	45152	
1371	0	36840	45212	
1372	0	36889	44964	
1373	0	36824	44820	
1374	0	36872	44552	
1375	0	36800	44800	
1376	0	36920	44716	
1377	0	36840	44744	
1378	0	36912	44586	
1379	0	36872	44528	
1380	0	36932	44466	
1381	0	36892	44080	
1382	0	36948	44248	
1383	0	36900	44040	
1384	0	36960	44192	
1385	0	36920	44136	
1386	0	36976	44088	
1387	0	36920	43936	
1388	0	36976	43992	
1389	0	36880	43946	
1390	0	36964	43914	
1391	0	36872	43666	
1392	0	36944	43912	
1393	0	36856	43880	
1394	0	36944	43844	
1395	0	36850	43848	
1396	0	36928	43760	
1397	0	36852	43698	
1398	0	36928	43504	
1399	0	36872	43620	
1400	0	36912	43432	
1401	0	36865	43624	
1402	0	36928	43480	
1403	0	36860	43544	
1404	0	36940	43224	
1405	0	36864	43304	
1406	0	36940	43336	
1407	0	36836	43160	
1408	0	36928	43208	
1409	0	36832	43232	
1410	0	36906	42976	
1411	0	36840	42898	
1412	0	36896	42731	
1413	0	36800	42784	
1414	0	36874	42696	
1415	0	36804	42440	
1416	0	36856	42568	
1417	0	36768	42456	
1418	0	36816	42200	
1419	0	36756	42508	
1420	0	36784	42296	
1421	0	36720	42292	
1422	0	36752	42256	
1423	0	36688	42280	
1424	0	36720	41864	
1425	0	36608	42064	
1426	0	36668	41988	
1427	0	36598	42000	
1428	0	36656	41832	
1429	0	36568	41842	
1430	0	36619	41604	
1431	0	36560	41704	
1432	0	36608	41288	
1433	0	36560	41296	
1434	0	36612	41520	
1435	0	36552	41544	
1436	0	36616	41352	
1437	0	36554	41296	
1438	0	36628	41264	
1439	0	36564	41338	
1440	0	36632	40976	
1441	0	36537	41272	
1442	0	36614	41168	
1443	0	36520	41016	
1444	0	36570	41066	
1445	0	36514	41040	
1446	0	36568	40714	
1447	0	36488	40916	
1448	0	36580	40812	
1449	0	36520	40660	
1450	0	36586	40626	
1451	0	36522	40596	
1452	0	36592	40600	
1453	0	36538	40505	
1454	0	36566	40250	
1455	0	36490	40480	
1456	0	36520	40344	
1457	0	36408	40296	
1458	0	36476	40016	
1459	0	36362	40058	
1460	0	36392	40144	
1461	0	36330	39968	
1462	0	36320	39962	
1463	0	36256	39816	
1464	0	36304	39892	
1465	0	36204	39892	
1466	0	36288	39616	
1467	0	36236	39660	
1468	0	36300	39408	
1469	0	36248	39600	
1470	0	36316	39384	
1471	0	36246	39560	
1472	0	36352	39274	
1473	0	36288	39362	
1474	0	36368	39276	
1475	0	36320	39008	
1476	0	36360	38978	
1477	0	36297	39060	
1478	0	36368	38944	
1479	0	36288	38960	
1480	0	36347	38616	
1481	0	36312	38784	
1482	0	36360	38665	
1483	0	36289	38648	
1484	0	36368	38472	
1485	0	36320	38536	
1486	0	36385	38384	
1487	0	36312	38288	
1488	0	36376	38152	
1489	0	36298	38204	
1490	0	36373	38186	
1491	0	36328	38200	
1492	0	36392	38088	
1493	0	36324	38072	
1494	0	36380	37938	
1495	0	36296	37932	
1496	0	36328	37940	
1497	0	36288	37904	
1498	0	36344	37800	
1499	0	36304	37728	
1500	0	36361	37756	
1501	0	36328	37633	
1502	0	36384	37648	
1503	0	36337	37480	
1504	0	36400	37532	
1505	0	36344	37376	
1506	0	36442	37408	
1507	0	36385	37224	
1508	0	36424	37264	
1509	0	36360	37160	
1510	0	36392	37028	
1511	0	36360	36936	
1512	0	36416	36832	
1513	0	36368	37064	
1514	0	36448	36872	
1515	0	36400	36860	
1516	0	36456	36776	
1517	0	36402	36800	
1518	0	36448	36596	
1519	0	36416	36576	
1520	0	36476	36392	
1521	0	36384	36392	
1522	0	36448	36416	
1523	0	36384	36252	
1524	0	36450	36234	
1525	0	36400	36252	
1526	0	36464	36160	
1527	0	36392	36056	
1528	0	36484	36104	
1529	0	36392	36140	
1530	0	36452	35888	
1531	0	36400	36036	
1532	0	36480	35864	
1533	0	36400	35808	
1534	0	36476	35868	
1535	0	36408	35892	
1536	0	36504	35620	
1537	0	36448	35792	
1538	0	36488	35666	
1539	0	36440	35552	
1540	0	36464	35484	
1541	0	36416	35420	
1542	0	36474	35500	
1543	0	36404	35386	
1544	0	36464	35288	
1545	0	36396	35320	
1546	0	36420	35072	
1547	0	36368	35264	
1548	0	36472	35080	
1549	0	36384	34988	
1550	0	36434	35072	
1551	0	36408	35072	
1552	0	36472	34980	
1553	0	36420	34912	
1554	0	36484	34976	
1555	0	36440	34912	
1556	0	36472	34976	
1557	0	36416	34912	
1558	0	36496	34864	
1559	0	36448	34808	
1560	0	36484	34836	
1561	0	36409	34872	
1562	0	36474	34748	
1563	0	36424	34664	
1564	0	36488	34576	
1565	0	36402	34698	
1566	0	36440	34482	
1567	0	36400	34542	
1568	0	36440	34570	
1569	0	36376	34408	
1570	0	36416	34424	
1571	0	36345	34376	
1572	0	36429	34384	
1573	0	36328	34224	
1574	0	36376	34296	
1575	0	36328	34264	
1576	0	36362	34250	
1577	0	36336	34148	
1578	0	36400	34152	
1579	0	36360	34208	
1580	0	36392	34088	
1581	0	36360	34148	
1582	0	36416	33960	
1583	0	36356	34088	
1584	0	36438	33904	
1585	0	36384	34144	
1586	0	36440	34008	
1587	0	36408	33948	
1588	0	36456	33930	
1589	0	36392	33970	
1590	0	36472	34048	
1591	0	36412	34088	
1592	0	36464	34062	
1593	0	36404	33992	
1594	0	36480	34054	
1595	0	36432	34176	
1596	0	36482	34048	
1597	0	36424	34072	
1598	0	36490	34136	
1599	0	36432	34090	
1600	0	36470	34088	
1601	0	36408	34004	
1602	0	36472	34116	
1603	0	36424	34148	
1604	0	36452	34081	
1605	0	36400	34056	
1606	0	36468	34112	
1607	0	36400	34148	
1608	0	36448	33988	
1609	0	36384	34171	
1610	0	36448	34096	
1611	0	36424	34108	
1612	0	36488	34128	
1613	0	36408	34036	
1614	0	36466	33996	
1615	0	36420	34104	
1616	0	36480	34204	
1617	0	36444	34216	
1618	0	36484	34096	
1619	0	36424	34108	
1620	0	36496	34092	
1621	0	36434	34272	
1622	0	36490	34176	
1623	0	36466	34144	
1624	0	36516	34160	
1625	0	36434	34216	
1626	0	36516	34186	
1627	0	36458	34256	
1628	0	36480	34186	
1629	0	36450	34312	
1630	0	36482	34196	
1631	0	36425	34176	
1632	0	36509	34200	
1633	0	36448	34348	
1634	0	36513	34226	
1635	0	36440	34208	
1636	0	36480	34260	
1637	0	36452	34280	
1638	0	36488	34224	
1639	0	36444	34250	
1640	0	36474	34252	
1641	0	36432	34202	
1642	0	36488	34216	
1643	0	36432	34384	
1644	0	36490	34336	
1645	0	36426	34330	
1646	0	36472	34282	
1647	0	36426	34266	
1648	0	36440	34176	
1649	0	36416	34368	
1650	0	36452	34216	
1651	0	36412	34368	
1652	0	36460	34220	
1653	0	36416	34352	
1654	0	36520	34328	
1655	0	36456	34242	
1656	0	36496	34324	
1657	0	36440	34248	
1658	0	36488	34336	
1659	0	36416	34370	
1660	0	36460	34392	
1661	0	36384	34352	
1662	0	36448	34338	
1663	0	36416	34440	
1664	0	36456	34332	
1665	0	36424	34393	
1666	0	36472	34328	
1667	0	36434	34408	
1668	0	36456	34300	
1669	0	36432	34308	
1670	0	36496	34232	
1671	0	36448	34432	
1672	0	36480	34316	
1673	0	36440	34432	
1674	0	36492	34394	
1675	0	36456	34362	
1676	0	36488	34272	
1677	0	36426	34504	
1678	0	36488	34456	
1679	0	36416	34496	
1680	0	36472	34420	
1681	0	36385	34402	
1682	0	36452	34392	
1683	0	36420	34328	
1684	0	36440	34512	
1685	0	36416	34464	
1686	0	36458	34514	
1687	0	36384	34408	
1688	0	36456	34384	
1689	0	36408	34592	
1690	0	36440	34576	
1691	0	36388	34642	
1692	0	36440	34544	
1693	0	36384	34672	
1694	0	36488	34680	
1695	0	36429	34619	
1696	0	36456	34672	
1697	0	36409	34728	
1698	0	36458	34564	
1699	0	36400	34736	
1700	0	36464	34763	
1701	0	36412	34760	
1702	0	36474	34716	
1703	0	36392	34740	
1704	0	36440	34708	
1705	0	36400	34804	
1706	0	36448	34904	
1707	0	36424	35018	
1708	0	36480	34920	
1709	0	36436	34968	
1710	0	36472	35082	
1711	0	36448	35116	
1712	0	36488	35176	
1713	0	36408	35108	
1714	0	36466	35172	
1715	0	36416	35244	
1716	0	36440	35204	
1717	0	36377	35484	
1718	0	36417	35448	
1719	0	36352	35592	
1720	0	36416	35496	
1721	0	36336	35760	
1722	0	36378	35764	
1723	0	36304	35856	
1724	0	36320	35760	
1725	0	36268	36040	
1726	0	36308	36032	
1727	0	36251	36080	
1728	0	36268	36260	
1729	0	36224	36256	
1730	0	36236	36448	
1731	0	36200	36540	
1732	0	36216	36556	
1733	0	36160	36618	
1734	0	36212	36845	
1735	0	36162	36992	
1736	0	36202	36896	
1737	0	36178	37168	
1738	0	36204	37320	
1739	0	36168	37328	
1740	0	36200	37456	
1741	0	36156	37592	
1742	0	36184	37474	
1743	0	36100	37610	
1744	0	36193	37688	
1745	0	36112	37896	
1746	0	36152	37841	
1747	0	36080	38064	
1748	0	36120	37945	
1749	0	36080	38272	
1750	0	36136	38196	
1751	0	36080	38410	
1752	0	36136	38276	
1753	0	36080	38392	
1754	0	36120	38544	
1755	0	36056	38660	
1756	0	36088	38696	
1757	0	36036	38738	
1758	0	36072	38496	
1759	0	36048	38656	
1760	0	36056	38856	
1761	0	36004	38832	
1762	0	36048	38712	
1763	0	35972	38992	
1764	0	36048	38976	
1765	0	36024	39172	
1766	0	36024	39090	
1767	0	35992	39226	
1768	0	36040	39280	
1769	0	35969	39328	
1770	0	36013	39464	
1771	0	35964	39364	
1772	0	36004	39456	
1773	0	35944	39648	
1774	0	36000	39592	
1775	0	35928	39824	
1776	0	35968	39865	
1777	0	35904	39960	
1778	0	35952	40000	
1779	0	35928	40120	
1780	0	35946	39888	
1781	0	35904	40089	
1782	0	35936	40320	
1783	0	35920	40416	
1784	0	35944	40312	
1785	0	35906	40568	
1786	0	35888	40568	
1787	0	35872	40724	
1788	0	35906	40552	
1789	0	35856	40908	
1790	0	35896	40832	
1791	0	35872	41008	
1792	0	35912	40916	
1793	0	35860	41072	
1794	0	35872	41160	
1795	0	35856	41232	
1796	0	35884	41264	
1797	0	35856	41514	
1798	0	35873	41280	
1799	0	35860	41352	
1800	0	35904	41632	
1801	0	35892	41763	
1802	0	35916	41620	
1803	0	35912	41704	
1804	0	35920	41928	
1805	0	35880	42032	
1806	0	35912	41896	
1807	0	35824	42172	
1808	0	35896	42000	
1809	0	35832	42320	
1810	0	35872	42212	
1811	0	35808	42472	
1812	0	35819	42470	
1813	0	35778	42434	
1814	0	35808	42600	
1815	0	35728	42400	
1816	0	35788	42753	
1817	0	35786	42840	
1818	0	35808	42868	
1819	0	35744	42652	
1820	0	35752	42992	
1821	0	35736	42872	
1822	0	35760	42930	
1823	0	35736	42964	
1824	0	35736	43196	
1825	0	35709	43280	
1826	0	35720	43312	
1827	0	35692	43208	
1828	0	35712	43088	
1829	0	35664	43308	
1830	0	35712	43512	
1831	0	35688	43504	
1832	0	35736	43680	
1833	0	35664	43760	
1834	0	35692	43794	
1835	0	35688	43748	
1836	0	35724	43800	
1837	0	35674	43752	
1838	0	35720	44000	
1839	0	35676	44066	
1840	0	35705	44164	
1841	0	35688	44096	
1842	0	35720	44224	
1843	0	35680	44160	
1844	0	35688	44376	
1845	0	35640	44480	
1846	0	35660	44520	
1847	0	35672	44624	
1848	0	35664	44512	
1849	0	35634	44624	
1850	0	35656	44744	
1851	0	35616	44820	
1852	0	35656	44936	
1853	0	35640	44588	
1854	0	35684	44824	
1855	0	35632	45088	
1856	0	35696	45160	
1857	0	35656	45248	
1858	0	35709	45032	
1859	0	35680	45400	
1860	0	35714	45417	
1861	0	35712	45426	
1862	0	35768	45448	
1863	0	35744	45664	
1864	0	35792	45672	
1865	0	35776	45642	
1866	0	35811	45848	
1867	0	35768	45840	
1868	0	35844	45800	
1869	0	35808	45992	
1870	0	35872	46160	
1871	0	35808	46244	
1872	0	35856	46396	
1873	0	35840	46480	
1874	0	35856	46512	
1875	0	35816	46624	
1876	0	35856	46560	
1877	0	35808	46792	
1878	0	35844	46896	
1879	0	35840	46948	
1880	0	35840	47056	
1881	0	35848	47152	
1882	0	35848	47252	
1883	0	35812	47296	
1884	0	35848	46994	
1885	0	35792	47360	
1886	0	35809	47464	
1887	0	35796	47688	
1888	0	35816	47664	
1889	0	35776	47562	
1890	0	35826	47802	
1891	0	35792	47912	
1892	0	35826	47872	
1893	0	35832	47960	
1894	0	35860	47780	
1895	0	35828	48096	
1896	0	35876	48200	
1897	0	35896	48288	
1898	0	35916	47984	
1899	0	35908	48368	
1900	0	35962	48496	
1901	0	35964	48484	
1902	0	36020	48624	
1903	0	36032	48584	
1904	0	36048	48696	
1905	0	36058	48784	
1906	0	36096	48736	
1907	0	36096	48722	
1908	0	36132	48788	
1909	0	36139	48664	
1910	0	36192	48865	
1911	0	36176	49048	
1912	0	36228	49120	
1913	0	36235	49120	
1914	0	36280	49136	
1915	0	36256	49216	
1916	0	36304	49209	
1917	0	36288	49288	
1918	0	36320	49320	
1919	0	36348	49408	
1920	0	36376	49072	
1921	0	36392	49344	
1922	0	36410	49392	
1923	0	36400	49546	
1924	0	36440	49528	
1925	0	36448	49528	
1926	0	36476	49620	
1927	0	36458	49696	
1928	0	36480	49712	
1929	0	36480	49736	
1930	0	36496	49744	
1931	0	36472	49668	
1932	0	36484	49744	
1933	0	36432	49888	
1934	0	36441	49932	
1935	0	36416	49832	
1936	0	36416	49940	
1937	0	36380	49880	
1938	0	36385	49936	
1939	0	36400	50056	
1940	0	36402	50056	
1941	0	36394	50128	
1942	0	36410	50152	
1943	0	36384	49778	
1944	0	36402	50196	
1945	0	36388	50112	
1946	0	36400	50224	
1947	0	36392	50192	
1948	0	36416	49776	
1949	0	36408	50368	
1950	0	36464	50336	
1951	0	36464	50432	
1952	0	36520	50296	
1953	0	36516	50104	
1954	0	36544	50432	
1955	0	36548	50464	
1956	0	36584	50512	
1957	0	36596	50568	
1958	0	36624	50464	
1959	0	36616	50632	
1960	0	36672	50576	
1961	0	36652	50560	
1962	0	36684	50572	
1963	0	36704	50504	
1964	0	36712	50744	
1965	0	36712	50752	
1966	0	36720	50809	
1967	0	36738	50840	
1968	0	36754	50522	
1969	0	36756	50760	
1970	0	36792	50864	
1971	0	36788	50844	
1972	0	36834	50928	
1973	0	36840	50944	
1974	0	36912	50856	
1975	0	36872	50988	
1976	0	36904	50912	
1977	0	36930	50600	
1978	0	36936	51040	
1979	0	36952	51104	
1980	0	36992	51136	
1981	0	36988	50840	
1982	0	36972	51176	
1983	0	36972	51164	
1984	0	37008	51120	
1985	0	37004	51152	
1986	0	37012	51209	
1987	0	37028	51264	
1988	0	37024	51296	
1989	0	37012	51280	
1990	0	37051	51296	
1991	0	37040	51400	
1992	0	37048	51392	
1993	0	37024	51320	
1994	0	37042	51480	
1995	0	37044	51224	
1996	0	37066	51080	
1997	0	37020	51552	
1998	0	37060	51480	
1999	0	37048	51488	
2000	0	37016	51580	
2001	0	37018	51520	
2002	0	37032	51544	
2003	0	37040	51616	
2004	0	36996	51216	
2005	0	36964	51752	
2006	0	37002	51688	
2007	0	36964	51776	
2008	0	36988	51744	
2009	0	36964	51856	
2010	0	37008	51856	
2011	0	37028	51864	
2012	0	37032	51768	
2013	0	37060	51912	
2014	0	37084	51536	
2015	0	37096	51872	
2016	0	37120	51928	
2017	0	37096	51752	
2018	0	37120	51864	
2019	0	37112	51792	
2020	0	37152	52008	
2021	0	37136	51990	
2022	0	37176	51792	
2023	0	37184	52068	
2024	0	37196	52048	
2025	0	37177	52049	
2026	0	37186	52108	
2027	0	37186	51658	
2028	0	37177	52112	
2029	0	37168	52072	
2030	0	37208	52076	
2031	0	37196	52140	
2032	0	37184	51632	
2033	0	37156	52180	
2034	0	37180	52144	
2035	0	37160	52184	
2036	0	37188	52160	
2037	0	37172	52184	
2038	0	37180	52016	
2039	0	37172	52184	
2040	0	37180	51844	
2041	0	37168	52208	
2042	0	37192	52176	
2043	0	37168	52228	
2044	0	37196	52148	
2045	0	37176	51920	
2046	0	37200	52208	
2047	0	37220	52008	
2048	0	37228	52186	
2049	0	37202	52136	
2050	0	37232	52252	
2051	0	37228	52120	
2052	0	37236	52216	
2053	0	37256	52232	
2054	0	37296	52176	
2055	0	37256	52112	
2056	0	37292	52256	
2057	0	37272	52276	
2058	0	37257	52192	
2059	0	37242	52232	
2060	0	37226	52162	
2061	0	37232	52184	
2062	0	37226	52244	
2063	0	37208	52232	
2064	0	37228	52132	
2065	0	37208	52200	
2066	0	37224	52264	
2067	0	37216	52160	
2068	0	37228	52248	
2069	0	37208	52224	
2070	0	37224	52232	
2071	0	37201	52248	
2072	0	37224	52104	
2073	0	37218	52218	
2074	0	37209	52192	
2075	0	37206	52216	
2076	0	37216	52192	
2077	0	37180	52208	
2078	0	37225	52208	
2079	0	37200	52154	
2080	0	37208	52236	
2081	0	37216	52160	
2082	0	37200	52249	
2083	0	37186	52232	
2084	0	37212	52186	
2085	0	37192	52092	
2086	0	37204	52208	
2087	0	37224	52256	
2088	0	37256	52200	
2089	0	37204	52240	
2090	0	37234	52104	
2091	0	37188	52224	
2092	0	37225	52176	
2093	0	37194	52240	
2094	0	37192	52192	
2095	0	37168	52176	
2096	0	37200	51732	
2097	0	37152	52192	
2098	0	37180	52256	
2099	0	37176	52256	
2100	0	37188	52176	
2101	0	37168	52224	
2102	0	37184	52188	
2103	0	37162	52232	
2104	0	37160	52200	
2105	0	37144	52192	
2106	0	37160	52232	
2107	0	37142	52194	
2108	0	37168	52088	
2109	0	37136	52128	
2110	0	37168	52154	
2111	0	37136	51905	
2112	0	37128	51973	
2113	0	37152	52084	
2114	0	37176	52144	
2115	0	37152	52116	
2116	0	37136	52144	
2117	0	37088	52024	
2118	0	37104	52104	
2119	0	37096	52064	
2120	0	37112	52016	
2121	0	37089	51992	
2122	0	37080	51952	
2123	0	37096	52042	
2124	0	37106	52009	
2125	0	37096	51884	
2126	0	37080	52040	
2127	0	37108	51896	
2128	0	37096	51952	
2129	0	37106	51984	
2130	0	37128	51969	
2131	0	37122	51952	
2132	0	37122	51976	
2133	0	37138	51992	
2134	0	37153	51980	
2135	0	37136	51872	
2136	0	37156	51872	
2137	0	37160	51528	
2138	0	37177	51968	
2139	0	37152	51828	
2140	0	37192	51904	
2141	0	37184	51832	
2142	0	37192	51904	
2143	0	37204	51920	
2144	0	37204	51920	
2145	0	37216	51920	
2146	0	37216	51936	
2147	0	37200	51756	
2148	0	37204	51856	
2149	0	37192	51640	
2150	0	37198	51890	
2151	0	37176	51890	
2152	0	37176	51904	
2153	0	37156	51892	
2154	0	37137	51768	
2155	0	37148	51920	
2156	0	37136	51876	
2157	0	37120	51872	
2158	0	37104	51876	
2159	0	37076	51888	
2160	0	37096	51896	
2161	0	37096	51880	
2162	0	37096	51784	
2163	0	37072	51852	
2164	0	37088	51708	
2165	0	37072	51808	
2166	0	37088	51680	
2167	0	37064	51680	
2168	0	37100	51812	
2169	0	37088	51808	
2170	0	37088	51756	
2171	0	37060	51328	
2172	0	37088	51752	
2173	0	37080	51680	
2174	0	37088	51736	
2175	0	37084	51648	
2176	0	37072	51762	
2177	0	37092	51344	
2178	0	37098	51384	
2179	0	37080	51708	
2180	0	37092	51640	
2181	0	37080	51696	
2182	0	37098	51688	
2183	0	37124	51648	
2184	0	37168	51600	
2185	0	37160	51656	
2186	0	37168	51668	
2187	0	37192	51624	
2188	0	37192	51572	
2189	0	37209	51480	
2190	0	37236	51496	
2191	0	37272	51544	
2192	0	37340	51504	
2193	0	37384	51520	
2194	0	37434	51544	
2195	0	37472	51360	
2196	0	37448	51504	
2197	0	37472	51364	
2198	0	37520	50912	
2199	0	37508	51456	
2200	0	37536	51436	
2201	0	37562	51394	
2202	0	37632	51392	
2203	0	37652	51361	
2204	0	37668	51400	
2205	0	37704	51304	
2206	0	37776	51304	
2207	0	37770	51320	
2208	0	37793	51280	
2209	0	37808	51264	
2210	0	37820	51152	
2211	0	37840	51257	
2212	0	37868	51240	
2213	0	37888	51192	
2214	0	37924	51256	
2215	0	37920	51144	
2216	0	37952	51096	
2217	0	37952	51136	
2218	0	37988	51136	
2219	0	38016	51152	
2220	0	38008	51072	
2221	0	38024	51008	
2222	0	38073	51042	
2223	0	38064	50628	
2224	0	38120	51040	
2225	0	38130	50840	
2226	0	38153	50912	
2227	0	38180	51040	
2228	0	38203	50944	
2229	0	38232	50992	
2230	0	38260	50928	
2231	0	38256	50884	
2232	0	38280	50832	
2233	0	38268	50944	
2234	0	38266	50928	
2235	0	38276	50912	
2236	0	38308	50842	
2237	0	38312	50852	
2238	0	38304	50816	
2239	0	38308	50852	
2240	0	38324	50744	
2241	0	38336	50864	
2242	0	38336	50832	
2243	0	38290	50868	
2244	0	38280	50864	
2245	0	38272	50832	
2246	0	38248	50832	
2247	0	38216	50816	
2248	0	38224	50584	
2249	0	38184	50760	
2250	0	38233	50696	
2251	0	38224	50746	
2252	0	38240	50752	
2253	0	38232	50624	
2254	0	38265	50672	
2255	0	38266	50680	
2256	0	38296	50704	
2257	0	38312	50672	
2258	0	38320	50640	
2259	0	38316	50602	
2260	0	38328	50616	
2261	0	38362	50314	
2262	0	38352	50472	
2263	0	38352	50128	
2264	0	38352	50570	
2265	0	38320	50580	
2266	0	38344	50532	
2267	0	38340	50552	
2268	0	38368	50418	
2269	0	38352	50520	
2270	0	38376	50480	
2271	0	38356	50432	
2272	0	38376	50394	
2273	0	38372	50168	
2274	0	38393	50498	
2275	0	38393	50448	
2276	0	38400	50460	
2277	0	38392	50400	
2278	0	38424	50464	
2279	0	38410	49992	
2280	0	38416	50436	
2281	0	38436	50440	
2282	0	38436	50384	
2283	0	38428	50420	
2284	0	38432	50316	
2285	0	38444	50392	
2286	0	38472	50348	
2287	0	38480	50344	
2288	0	38488	50296	
2289	0	38488	50344	
2290	0	38510	50320	
2291	0	38472	50344	
2292	0	38524	50304	
2293	0	38464	50336	
2294	0	38488	50272	
2295	0	38484	50328	
2296	0	38496	50232	
2297	0	38488	50028	
2298	0	38480	50196	
2299	0	38480	50176	
2300	0	38488	50272	
2301	0	38464	50136	
2302	0	38480	49888	
2303	0	38468	50154	
2304	0	38456	50120	
2305	0	38472	49720	
2306	0	38436	50112	
2307	0	38481	50098	
2308	0	38489	50032	
2309	0	38440	50020	
2310	0	38436	49952	
2311	0	38448	49962	
2312	0	38418	49904	
2313	0	38424	49888	
2314	0	38384	49832	
2315	0	38388	49776	
2316	0	38340	49752	
2317	0	38368	49620	
2318	0	38336	49656	
2319	0	38320	49610	
2320	0	38328	49368	
2321	0	38352	49448	
2322	0	38352	49424	
2323	0	38368	49376	
2324	0	38400	49272	
2325	0	38416	49248	
2326	0	38456	49096	
2327	0	38468	49080	
2328	0	38520	48968	
2329	0	38569	48864	
2330	0	38656	48848	
2331	0	38688	48740	
2332	0	38736	48712	
2333	0	38744	48576	
2334	0	38764	48596	
2335	0	38728	48304	
2336	0	38680	48532	
2337	0	38600	48416	
2338	0	38568	48136	
2339	0	38512	48352	
2340	0	38448	48344	
2341	0	38376	48328	
2342	0	38340	48228	
2343	0	38304	48240	
2344	0	38296	48232	
2345	0	38266	47770	
2346	0	38240	48152	
2347	0	38208	48088	
2348	0	38200	47738	
2349	0	38160	47840	
2350	0	38132	47960	
2351	0	38072	47844	
2352	0	38032	47912	
2353	0	38004	47712	
2354	0	37936	47808	
2355	0	37912	47720	
2356	0	37880	47416	
2357	0	37892	47588	
2358	0	37842	47572	
2359	0	37784	47546	
2360	0	37800	47380	
2361	0	37776	47290	
2362	0	37772	47376	
2363	0	37768	47280	
2364	0	37788	47208	
2365	0	37769	47216	
2366	0	37802	46688	
2367	0	37776	47050	
2368	0	37792	46880	
2369	0	37760	46992	
2370	0	37762	46928	
2371	0	37716	46784	
2372	0	37721	46811	
2373	0	37664	46752	
2374	0	37648	46704	
2375	0	37609	46632	
2376	0	37604	46616	
2377	0	37584	46496	
2378	0	37552	46496	
2379	0	37524	46392	
2380	0	37536	46416	
2381	0	37472	46224	
2382	0	37496	46316	
2383	0	37456	45898	
2384	0	37456	46064	
2385	0	37432	46152	
2386	0	37428	46032	
2387	0	37404	46008	
2388	0	37424	45834	
2389	0	37412	45864	
2390	0	37412	45770	
2391	0	37385	45728	
2392	0	37360	45682	
2393	0	37354	45668	
2394	0	37344	45600	
2395	0	37300	45586	
2396	0	37280	45500	
2397	0	37250	45466	
2398	0	37274	45353	
2399	0	37228	45248	
2400	0	37192	45204	
2401	0	37176	45248	
2402	0	37160	45264	
2403	0	37112	45028	
2404	0	37120	45168	
2405	0	37101	44912	
2406	0	37084	44972	
2407	0	37064	45008	
2408	0	37060	44800	
2409	0	37052	44874	
2410	0	37040	44832	
2411	0	37056	44756	
2412	0	37060	44704	
2413	0	37048	44384	
2414	0	37064	44308	
2415	0	37040	44225	
2416	0	37048	44480	
2417	0	37052	44408	
2418	0	37066	44328	
2419	0	37060	44268	
2420	0	37056	44008	
2421	0	37048	43888	
2422	0	37028	44024	
2423	0	37040	44026	
2424	0	37008	43946	
2425	0	36986	43936	
2426	0	36972	43826	
2427	0	36976	43776	
2428	0	36956	43664	
2429	0	36928	43616	
2430	0	36912	43336	
2431	0	36860	43504	
2432	0	36848	43408	
2433	0	36825	43416	
2434	0	36752	43140	
2435	0	36728	43336	
2436	0	36701	43280	
2437	0	36668	43020	
2438	0	36660	42936	
2439	0	36636	43002	
2440	0	36608	42898	
2441	0	36576	42834	
2442	0	36608	42656	
2443	0	36610	42608	
2444	0	36612	42684	
2445	0	36608	42464	
2446	0	36624	42560	
2447	0	36616	42488	
2448	0	36624	42216	
2449	0	36628	42384	
2450	0	36620	42296	
2451	0	36615	42144	
2452	0	36592	41960	
2453	0	36568	41856	
2454	0	36576	41864	
2455	0	36560	41778	
2456	0	36528	41704	
2457	0	36504	41672	
2458	0	36496	41696	
2459	0	36500	41700	
2460	0	36512	41656	
2461	0	36502	41440	
2462	0	36504	41464	
2463	0	36528	41272	
2464	0	36506	41488	
2465	0	36504	41152	
2466	0	36524	41368	
2467	0	36522	41376	
2468	0	36506	41336	
2469	0	36494	41288	
2470	0	36506	41012	
2471	0	36474	41124	
2472	0	36460	41144	
2473	0	36464	40768	
2474	0	36448	40840	
2475	0	36476	40812	
2476	0	36472	40888	
2477	0	36466	40770	
2478	0	36472	40528	
2479	0	36490	40748	
2480	0	36464	40632	
2481	0	36492	40376	
2482	0	36506	40264	
2483	0	36496	40548	
2484	0	36492	40312	
2485	0	36490	40208	
2486	0	36504	40288	
2487	0	36472	40280	
2488	0	36480	40024	
2489	0	36480	40132	
2490	0	36436	40064	
2491	0	36432	40016	
2492	0	36408	39808	
2493	0	36400	39921	
2494	0	36400	39844	
2495	0	36385	39640	
2496	0	36408	39560	
2497	0	36384	39424	
2498	0	36368	39568	
2499	0	36384	39536	
2500	0	36384	39488	
2501	0	36368	39448	
2502	0	36324	39300	
2503	0	36352	39352	
2504	0	36338	39124	
2505	0	36346	39098	
2506	0	36328	39040	
2507	0	36297	39096	
2508	0	36299	38949	
2509	0	36274	39048	
2510	0	36272	38868	
2511	0	36280	38936	
2512	0	36272	38832	
2513	0	36288	38804	
2514	0	36280	38600	
2515	0	36288	38672	
2516	0	36292	38544	
2517	0	36288	38560	
2518	0	36258	38624	
2519	0	36296	38472	
2520	0	36256	38488	
2521	0	36234	38404	
2522	0	36238	38336	
2523	0	36237	38290	
2524	0	36240	38072	
2525	0	36232	38010	
2526	0	36224	37892	
2527	0	36216	37994	
2528	0	36208	37752	
2529	0	36212	37704	
2530	0	36160	37592	
2531	0	36176	37560	
2532	0	36180	37648	
2533	0	36196	37512	
2534	0	36176	37536	
2535	0	36180	37352	
2536	0	36202	37248	
2537	0	36200	37180	
2538	0	36200	37416	
2539	0	36202	37152	
2540	0	36196	37304	
2541	0	36193	37136	
2542	0	36176	37002	
2543	0	36136	36992	
2544	0	36124	37092	
2545	0	36154	37088	
2546	0	36152	36928	
2547	0	36146	36964	
2548	0	36123	36896	
2549	0	36160	36980	
2550	0	36128	36848	
2551	0	36129	36788	
2552	0	36124	36928	
2553	0	36162	36896	
2554	0	36136	36816	
2555	0	36180	36836	
2556	0	36160	36716	
2557	0	36184	36748	
2558	0	36156	36656	
2559	0	36176	36632	
2560	0	36152	36584	
2561	0	36152	36441	
2562	0	36128	36402	
2563	0	36124	36344	
2564	0	36116	36480	
2565	0	36120	36370	
2566	0	36128	36232	
2567	0	36184	36180	
2568	0	36152	36152	
2569	0	36184	36108	
2570	0	36168	36096	
2571	0	36176	36256	
2572	0	36148	36088	
2573	0	36180	36132	
2574	0	36148	35960	
2575	0	36160	35993	
2576	0	36164	36080	
2577	0	36168	35944	
2578	0	36128	35912	
2579	0	36160	35896	
2580	0	36168	35944	
2581	0	36176	35808	
2582	0	36148	35984	
2583	0	36160	35880	
2584	0	36136	35944	
2585	0	36152	35808	
2586	0	36168	35812	
2587	0	36176	35808	
2588	0	36160	35993	
2589	0	36161	35972	
2590	0	36146	35988	
2591	0	36160	35792	
2592	0	36144	35808	
2593	0	36122	35945	
2594	0	36112	35963	
2595	0	36112	35920	
2596	0	36106	35920	
2597	0	36124	35928	
2598	0	36128	35776	
2599	0	36136	35914	
2600	0	36120	35960	
2601	0	36124	35826	
2602	0	36112	35784	
2603	0	36152	35952	
2604	0	36144	35809	
2605	0	36152	35912	
2606	0	36168	35978	
2607	0	36148	35840	
2608	0	36160	35784	
2609	0	36152	35960	
2610	0	36152	36000	
2611	0	36144	35932	
2612	0	36136	35900	
2613	0	36152	35816	
2614	0	36120	35928	
2615	0	36168	35848	
2616	0	36168	35954	
2617	0	36162	35921	
2618	0	36152	35976	
2619	0	36176	35832	
2620	0	36152	35872	
2621	0	36160	35952	
2622	0	36148	35948	
2623	0	36152	35872	
2624	0	36128	35832	
2625	0	36156	36020	
2626	0	36120	35976	
2627	0	36124	35928	
2628	0	36112	36016	
2629	0	36128	35992	
2630	0	36130	35930	
2631	0	36129	35978	
2632	0	36104	35996	
2633	0	36144	36042	
2634	0	36160	35872	
2635	0	36144	35865	
2636	0	36128	36012	
2637	0	36140	35976	
2638	0	36136	35968	
2639	0	36128	36008	
2640	0	36112	35952	
2641	0	36128	35968	
2642	0	36146	35912	
2643	0	36160	36112	
2644	0	36136	35997	
2645	0	36156	35992	
2646	0	36136	36128	
2647	0	36176	36096	
2648	0	36160	36208	
2649	0	36153	36076	
2650	0	36128	36116	
2651	0	36136	36112	
2652	0	36128	36168	
2653	0	36136	36112	
2654	0	36130	36226	
2655	0	36120	36136	
2656	0	36132	36176	
2657	0	36160	36208	
2658	0	36162	36228	
2659	0	36140	36144	
2660	0	36148	36168	
2661	0	36176	36300	
2662	0	36136	36352	
2663	0	36160	36324	
2664	0	36156	36234	
2665	0	36160	36336	
2666	0	36128	36264	
2667	0	36168	36368	
2668	0	36144	36276	
2669	0	36140	36196	
2670	0	36146	36248	
2671	0	36144	36441	
2672	0	36128	36296	
2673	0	36162	36360	
2674	0	36128	36480	
2675	0	36185	36376	
2676	0	36170	36416	
2677	0	36168	36508	
2678	0	36160	36548	
2679	0	36176	36528	
2680	0	36162	36608	
2681	0	36192	36474	
2682	0	36160	36744	
2683	0	36204	36724	
2684	0	36144	36652	
2685	0	36171	36616	
2686	0	36170	36836	
2687	0	36192	36720	
2688	0	36144	36840	
2689	0	36170	36956	
2690	0	36120	36844	
2691	0	36152	37048	
2692	0	36152	36976	
2693	0	36144	37016	
2694	0	36104	37004	
2695	0	36146	37192	
2696	0	36120	37280	
2697	0	36136	37248	
2698	0	36136	37176	
2699	0	36132	37256	
2700	0	36112	37232	
2701	0	36140	37224	
2702	0	36116	37464	
2703	0	36116	37404	
2704	0	36112	37456	
2705	0	36144	37408	
2706	0	36124	37490	
2707	0	36136	37681	
2708	0	36128	37724	
2709	0	36120	37776	
2710	0	36096	37816	
2711	0	36136	37728	
2712	0	36096	37728	
2713	0	36096	37848	
2714	0	36096	38000	
2715	0	36136	37842	
2716	0	36096	37960	
2717	0	36136	37892	
2718	0	36081	38010	
2719	0	36112	38090	
2720	0	36084	38280	
2721	0	36120	38184	
2722	0	36084	38248	
2723	0	36112	38444	
2724	0	36064	38344	
2725	0	36128	38480	
2726	0	36096	38376	
2727	0	36096	38469	
2728	0	36084	38672	
2729	0	36112	38596	
2730	0	36104	38752	
2731	0	36124	38696	
2732	0	36104	38601	
2733	0	36112	38848	
2734	0	36105	38864	
2735	0	36112	38756	
2736	0	36116	38872	
2737	0	36132	39050	
2738	0	36132	39016	
2739	0	36153	39136	
2740	0	36116	39072	
2741	0	36169	39156	
2742	0	36128	39008	
2743	0	36160	39234	
2744	0	36154	39352	
2745	0	36162	39400	
2746	0	36132	39272	
2747	0	36184	39489	
2748	0	36152	39360	
2749	0	36168	39280	
2750	0	36152	39648	
2751	0	36168	39680	
2752	0	36128	39744	
2753	0	36160	39808	
2754	0	36122	39764	
2755	0	36166	39632	
2756	0	36148	40032	
2757	0	36160	40028	
2758	0	36128	40136	
2759	0	36152	39880	
2760	0	36148	40264	
2761	0	36176	40168	
2762	0	36160	40384	
2763	0	36192	40256	
2764	0	36184	40496	
2765	0	36168	40460	
2766	0	36178	40536	
2767	0	36184	40640	
2768	0	36168	40672	
2769	0	36216	40772	
2770	0	36168	40844	
2771	0	36218	40972	
2772	0	36194	41144	
2773	0	36256	41160	
2774	0	36224	41096	
2775	0	36252	41208	
2776	0	36224	41440	
2777	0	36268	41376	
2778	0	36252	41580	
2779	0	36298	41720	
2780	0	36272	41668	
2781	0	36312	41664	
2782	0	36290	41816	
2783	0	36320	41993	
2784	0	36312	41912	
2785	0	36344	42098	
2786	0	36288	42208	
2787	0	36328	42368	
2788	0	36296	42138	
2789	0	36304	42480	
2790	0	36312	42444	
2791	0	36352	42456	
2792	0	36368	42668	
2793	0	36384	42784	
2794	0	36352	42712	
2795	0	36394	42960	
2796	0	36368	42768	
2797	0	36422	43002	
2798	0	36416	42976	
2799	0	36456	43196	
2800	0	36424	43280	
2801	0	36464	43364	
2802	0	36440	43346	
2803	0	36500	43300	
2804	0	36488	43604	
2805	0	36504	43668	
2806	0	36460	43520	
2807	0	36512	43850	
2808	0	36496	43896	
2809	0	36528	43856	
2810	0	36512	43848	
2811	0	36546	43840	
2812	0	36504	44034	
2813	0	36552	44112	
2814	0	36544	44324	
2815	0	36616	44260	
2816	0	36608	44520	
2817	0	36636	44544	
2818	0	36637	44672	
2819	0	36640	44684	
2820	0	36612	44753	
2821	0	36672	44610	
2822	0	36664	44808	
2823	0	36697	44786	
2824	0	36684	45003	
2825	0	36728	44984	
2826	0	36736	45168	
2827	0	36744	45128	
2828	0	36752	45216	
2829	0	36800	45234	
2830	0	36776	45328	
2831	0	36800	45336	
2832	0	36776	45352	
2833	0	36812	45418	
2834	0	36738	45570	
2835	0	36801	45552	
2836	0	36801	45344	
2837	0	36796	45632	
2838	0	36792	45676	
2839	0	36826	45728	
2840	0	36808	45736	
2841	0	36856	45832	
2842	0	36792	45728	
2843	0	36856	45938	
2844	0	36832	46008	
2845	0	36872	45736	
2846	0	36848	46116	
2847	0	36860	46144	
2848	0	36826	46180	
2849	0	36856	46210	
2850	0	36832	46296	
2851	0	36885	45928	
2852	0	36856	46448	
2853	0	36908	46372	
2854	0	36888	46155	
2855	0	36928	46408	
2856	0	36920	46602	
2857	0	36956	46692	
2858	0	36936	46664	
2859	0	37012	46752	
2860	0	36994	46800	
2861	0	37033	46824	
2862	0	37040	46936	
2863	0	37096	47016	
2864	0	37076	47096	
2865	0	37144	47120	
2866	0	37141	47208	
2867	0	37160	47235	
2868	0	37160	47200	
2869	0	37220	47312	
2870	0	37196	47362	
2871	0	37244	47232	
2872	0	37280	47456	
2873	0	37292	47562	
2874	0	37304	47600	
2875	0	37352	47584	
2876	0	37328	47664	
2877	0	37360	47448	
2878	0	37320	47716	
2879	0	37384	47840	
2880	0	37352	47900	
2881	0	37416	47880	
2882	0	37368	47992	
2883	0	37408	47912	
2884	0	37400	47920	
2885	0	37434	48048	
2886	0	37424	48152	
2887	0	37472	48164	
2888	0	37444	48272	
2889	0	37500	48264	
2890	0	37504	48336	
2891	0	37548	48344	
2892	0	37520	48440	
2893	0	37600	48448	
2894	0	37600	48544	
2895	0	37668	48400	
2896	0	37632	48624	
2897	0	37668	48608	
2898	0	37657	48618	
2899	0	37721	48688	
2900	0	37712	48760	
2901	0	37748	48776	
2902	0	37704	48840	
2903	0	37776	48864	
2904	0	37732	48896	
2905	0	37796	48992	
2906	0	37804	49004	
2907	0	37826	48728	
2908	0	37792	49024	
2909	0	37856	49040	
2910	0	37824	48904	
2911	0	37844	49072	
2912	0	37832	49184	
2913	0	37856	49168	
2914	0	37818	49216	
2915	0	37844	49216	
2916	0	37832	49330	
2917	0	37848	49320	
2918	0	37820	49342	
2919	0	37848	49432	
2920	0	37824	49472	
2921	0	37852	49440	
2922	0	37832	49536	
2923	0	37864	49576	
2924	0	37856	49540	
2925	0	37916	49616	
2926	0	37896	49688	
2927	0	37940	49672	
2928	0	37952	49676	
2929	0	38020	49728	
2930	0	37993	49760	
2931	0	38040	49508	
2932	0	38008	49856	
2933	0	38048	49776	
2934	0	38056	49833	
2935	0	38116	49888	
2936	0	38096	49984	
2937	0	38136	49936	
2938	0	38128	49992	
2939	0	38156	49920	
2940	0	38188	50104	
2941	0	38188	50072	
2942	0	38164	50112	
2943	0	38208	50088	
2944	0	38168	50008	
2945	0	38203	50112	
2946	0	38220	50080	
2947	0	38258	50192	
2948	0	38208	50256	
2949	0	38250	50162	
2950	0	38220	50264	
2951	0	38244	50240	
2952	0	38224	50312	
2953	0	38272	50304	
2954	0	38248	50256	
2955	0	38276	50328	
2956	0	38252	50320	
2957	0	38322	50312	
2958	0	38248	50360	
2959	0	38308	50388	
2960	0	38276	50368	
2961	0	38309	50404	
2962	0	38276	50393	
2963	0	38340	50416	
2964	0	38304	50368	
2965	0	38344	50436	
2966	0	38316	50296	
2967	0	38340	50472	
2968	0	38272	50432	
2969	0	38304	50488	
2970	0	38232	50560	
2971	0	38248	50528	
2972	0	38154	50592	
2973	0	38210	50560	
2974	0	38146	50616	
2975	0	38204	50576	
2976	0	38168	50648	
2977	0	38210	50532	
2978	0	38204	50568	
2979	0	38264	50568	
2980	0	38248	50640	
2981	0	38336	50184	
2982	0	38304	50648	
2983	0	38352	50496	
2984	0	38320	50632	
2985	0	38372	50308	
2986	0	38356	50664	
2987	0	38416	50544	
2988	0	38388	50660	
2989	0	38441	50116	
2990	0	38400	50568	
2991	0	38450	50304	
2992	0	38416	50696	
2993	0	38408	50656	
2994	0	38376	50618	
2995	0	38400	50322	
2996	0	38361	50760	
2997	0	38368	50728	
2998	0	38344	50754	
2999	0	38360	50752	
3000	0	38304	50704	
3001	0	38324	50696	
3002	0	38288	50676	
3003	0	38336	50660	
3004	0	38266	50728	
3005	0	38316	50632	
3006	0	38256	50696	
3007	0	38280	50656	
3008	0	38272	50760	
3009	0	38304	50738	
3010	0	38250	50752	
3011	0	38288	50636	
3012	0	38252	50744	
3013	0	38274	50672	
3014	0	38272	50564	
3015	0	38332	50656	
3016	0	38292	50672	
3017	0	38336	50448	
3018	0	38292	50656	
3019	0	38352	50676	
3020	0	38330	50696	
3021	0	38372	50656	
3022	0	38312	50552	
3023	0	38344	50600	
3024	0	38284	50632	
3025	0	38352	50600	
3026	0	38280	50656	
3027	0	38329	50642	
3028	0	38281	50632	
3029	0	38312	50664	
3030	0	38224	50696	
3031	0	38240	50560	
3032	0	38216	50728	
3033	0	38264	50280	
3034	0	38186	50660	
3035	0	38228	50648	
3036	0	38164	50660	
3037	0	38208	50528	
3038	0	38132	50626	
3039	0	38164	50488	
3040	0	38132	50648	
3041	0	38160	50584	
3042	0	38112	50568	
3043	0	38160	50480	
3044	0	38104	50616	
3045	0	38144	50552	
3046	0	38108	50480	
3047	0	38128	50496	
3048	0	38112	50576	
3049	0	38152	50248	
3050	0	38072	50488	
3051	0	38112	50500	
3052	0	38064	50472	
3053	0	38072	50472	
3054	0	38000	50248	
3055	0	38048	50464	
3056	0	37992	49992	
3057	0	38036	50448	
3058	0	37984	50464	
3059	0	38016	50400	
3060	0	37960	50216	
3061	0	38018	50400	
3062	0	38016	50312	
3063	0	38040	50332	
3064	0	38006	49896	
3065	0	38016	50274	
3066	0	37960	50096	
3067	0	37994	50128	
3068	0	37920	50244	
3069	0	37970	50160	
3070	0	37888	50080	
3071	0	37938	49978	
3072	0	37848	50088	
3073	0	37896	50008	
3074	0	37856	49968	
3075	0	37892	49992	
3076	0	37856	50048	
3077	0	37912	50004	
3078	0	37856	49924	
3079	0	37832	49928	
3080	0	37808	50016	
3081	0	37840	49904	
3082	0	37772	49944	
3083	0	37840	49812	
3084	0	37776	49972	
3085	0	37832	49944	
3086	0	37776	49952	
3087	0	37832	49856	
3088	0	37756	49888	
3089	0	37832	49664	
3090	0	37800	49984	
3091	0	37844	49920	
3092	0	37818	49872	
3093	0	37856	49880	
3094	0	37828	49920	
3095	0	37860	49848	
3096	0	37827	49896	
3097	0	37844	49872	
3098	0	37812	49580	
3099	0	37852	49792	
3100	0	37832	49856	
3101	0	37840	49706	
3102	0	37788	49376	
3103	0	37810	49714	
3104	0	37736	49784	
3105	0	37772	49712	
3106	0	37677	49768	
3107	0	37720	49682	
3108	0	37648	49724	
3109	0	37686	49624	
3110	0	37596	49700	
3111	0	37632	49256	
3112	0	37530	49672	
3113	0	37554	49592	
3114	0	37466	49504	
3115	0	37536	49456	
3116	0	37440	49554	
3117	0	37488	49456	
3118	0	37424	49152	
3119	0	37492	49452	
3120	0	37448	49504	
3121	0	37464	49408	
3122	0	37376	49464	
3123	0	37440	49376	
3124	0	37376	49336	
3125	0	37418	49352	
3126	0	37360	49288	
3127	0	37432	49216	
3128	0	37384	49352	
3129	0	37416	49232	
3130	0	37380	48992	
3131	0	37448	49224	
3132	0	37392	49240	
3133	0	37452	49024	
3134	0	37408	49192	
3135	0	37472	49120	
3136	0	37440	49152	
3137	0	37490	49144	
3138	0	37434	49106	
3139	0	37482	49088	
3140	0	37484	49064	
3141	0	37520	49072	
3142	0	37480	49088	
3143	0	37504	49026	
3144	0	37442	49068	
3145	0	37496	49060	
3146	0	37424	49048	
3147	0	37504	48640	
3148	0	37416	48888	
3149	0	37474	49008	
3150	0	37416	49056	
3151	0	37440	48914	
3152	0	37392	48984	
3153	0	37412	48848	
3154	0	37376	48976	
3155	0	37408	48864	
3156	0	37369	48904	
3157	0	37396	48842	
3158	0	37349	48888	
3159	0	37400	48832	
3160	0	37344	48896	
3161	0	37408	48416	
3162	0	37388	48808	
3163	0	37464	48352	
3164	0	37396	48800	
3165	0	37434	48768	
3166	0	37337	48588	
3167	0	37360	48704	
3168	0	37272	48690	
3169	0	37272	48722	
3170	0	37164	48728	
3171	0	37244	48672	
3172	0	37168	48428	
3173	0	37201	48562	
3174	0	37148	48616	
3175	0	37196	48576	
3176	0	37104	48608	
3177	0	37148	48456	
3178	0	37088	48208	
3179	0	37092	48384	
3180	0	37026	48480	
3181	0	37049	48404	
3182	0	36984	48456	
3183	0	37024	48296	
3184	0	36913	48400	
3185	0	36936	48360	
3186	0	36864	48264	
3187	0	36880	48292	
3188	0	36800	48288	
3189	0	36816	48056	
3190	0	36756	48164	
3191	0	36792	47768	
3192	0	36776	48124	
3193	0	36840	48080	
3194	0	36816	48028	
3195	0	36874	48088	
3196	0	36820	48116	
3197	0	36896	48056	
3198	0	36845	48088	
3199	0	36888	47888	
3200	0	36820	48016	
3201	0	36850	48032	
3202	0	36796	48084	
3203	0	36848	48032	
3204	0	36792	47672	
3205	0	36856	47928	
3206	0	36820	48064	
3207	0	36890	47992	
3208	0	36840	48080	
3209	0	36897	48112	
3210	0	36872	48200	
3211	0	36921	48168	
3212	0	36888	48232	
3213	0	36968	48248	
3214	0	36912	48264	
3215	0	36948	47912	
3216	0	36921	48416	
3217	0	36930	48420	
3218	0	36888	48329	
3219	0	36907	48544	
3220	0	36860	48544	
3221	0	36876	48640	
3222	0	36848	48656	
3223	0	36900	48664	
3224	0	36874	48768	
3225	0	36948	48632	
3226	0	36912	48752	
3227	0	36984	48744	
3228	0	36946	48874	
3229	0	36978	48826	
3230	0	36952	48784	
3231	0	36988	48880	
3232	0	36912	48920	
3233	0	36960	48832	
3234	0	36912	48800	
3235	0	36921	48712	
3236	0	36880	48768	
3237	0	36896	48624	
3238	0	36840	48648	
3239	0	36880	48641	
3240	0	36812	48712	
3241	0	36880	48592	
3242	0	36804	48480	
3243	0	36856	48504	
3244	0	36760	48442	
3245	0	36808	48480	
3246	0	36711	48448	
3247	0	36728	48112	
3248	0	36664	48192	
3249	0	36692	48176	
3250	0	36608	48172	
3251	0	36608	48112	
3252	0	36492	48096	
3253	0	36512	48008	
3254	0	36470	48032	
3255	0	36488	47976	
3256	0	36424	48000	
3257	0	36440	47760	
3258	0	36409	47920	
3259	0	36432	47832	
3260	0	36384	47872	
3261	0	36440	47752	
3262	0	36400	47776	
3263	0	36432	47632	
3264	0	36360	47784	
3265	0	36410	47784	
3266	0	36340	47792	
3267	0	36360	47800	
3268	0	36310	47530	
3269	0	36368	47840	
3270	0	36280	47884	
3271	0	36344	47872	
3272	0	36288	47980	
3273	0	36344	47840	
3274	0	36288	47968	
3275	0	36352	48056	
3276	0	36312	48024	
3277	0	36368	48074	
3278	0	36312	48124	
3279	0	36370	48096	
3280	0	36304	48192	
3281	0	36360	48184	
3282	0	36296	48250	
3283	0	36368	48224	
3284	0	36288	48192	
3285	0	36336	48192	
3286	0	36296	48256	
3287	0	36320	48313	
3288	0	36260	48008	
3289	0	36324	48260	
3290	0	36280	48248	
3291	0	36336	48336	
3292	0	36264	48344	
3293	0	36297	48251	
3294	0	36280	48332	
3295	0	36316	48298	
3296	0	36272	48328	
3297	0	36328	48336	
3298	0	36296	48392	
3299	0	36344	48160	
3300	0	36312	48320	
3301	0	36400	48200	
3302	0	36312	48296	
3303	0	36384	48216	
3304	0	36344	48305	
3305	0	36396	48192	
3306	0	36336	48273	
3307	0	36360	48224	
3308	0	36297	47920	
3309	0	36336	48224	
3310	0	36260	48224	
3311	0	36312	48176	
3312	0	36240	48232	
3313	0	36308	48152	
3314	0	36288	48160	
3315	0	36352	48020	
3316	0	36302	48032	
3317	0	36356	48068	
3318	0	36292	47960	
3319	0	36362	48024	
3320	0	36296	48000	
3321	0	36346	47864	
3322	0	36320	47968	
3323	0	36420	47808	
3324	0	36384	47860	
3325	0	36432	47744	
3326	0	36376	47921	
3327	0	36456	47764	
3328	0	36434	47872	
3329	0	36466	47872	
3330	0	36396	47904	
3331	0	36456	47800	
3332	0	36440	47952	
3333	0	36472	47904	
3334	0	36404	47970	
3335	0	36468	47984	
3336	0	36432	48016	
3337	0	36482	48025	
3338	0	36416	47952	
3339	0	36492	47704	
3340	0	36450	48096	
3341	0	36528	48080	
3342	0	36476	48136	
3343	0	36552	48128	
3344	0	36523	48064	
3345	0	36560	48056	
3346	0	36544	48176	
3347	0	36568	48184	
3348	0	36584	47794	
3349	0	36632	48208	
3350	0	36580	48264	
3351	0	36632	48216	
3352	0	36580	48272	
3353	0	36644	48232	
3354	0	36572	48256	
3355	0	36592	48232	
3356	0	36576	48266	
3357	0	36612	48232	
3358	0	36530	48144	
3359	0	36608	48216	
3360	0	36545	48176	
3361	0	36592	48184	
3362	0	36552	48288	
3363	0	36608	48024	
3364	0	36530	48312	
3365	0	36594	48328	
3366	0	36520	48288	
3367	0	36584	48056	
3368	0	36504	48344	
3369	0	36560	48332	
3370	0	36506	48401	
3371	0	36576	48368	
3372	0	36520	48432	
3373	0	36552	48360	
3374	0	36512	48344	
3375	0	36554	48385	
3376	0	36500	48232	
3377	0	36544	48276	
3378	0	36522	48009	
3379	0	36576	48236	
3380	0	36520	48384	
3381	0	36546	48344	
3382	0	36530	48448	
3383	0	36584	48344	
3384	0	36528	48440	
3385	0	36576	48256	
3386	0	36520	48488	
3387	0	36612	48416	
3388	0	36544	48480	
3389	0	36624	48416	
3390	0	36592	48492	
3391	0	36644	48409	
3392	0	36584	48508	
3393	0	36648	48376	
3394	0	36576	48496	
3395	0	36612	48448	
3396	0	36576	48520	
3397	0	36618	47978	
3398	0	36540	48490	
3399	0	36652	48420	
3400	0	36572	48496	
3401	0	36592	48296	
3402	0	36552	48312	
3403	0	36594	48428	
3404	0	36516	48432	
3405	0	36528	48384	
3406	0	36480	48440	
3407	0	36544	48408	
3408	0	36472	48468	
3409	0	36512	48440	
3410	0	36458	48488	
3411	0	36522	48428	
3412	0	36480	48364	
3413	0	36552	48416	
3414	0	36520	48464	
3415	0	36556	48392	
3416	0	36560	48394	
3417	0	36641	48360	
3418	0	36609	48384	
3419	0	36672	48432	
3420	0	36636	48456	
3421	0	36696	48352	
3422	0	36688	48192	
3423	0	36760	48392	
3424	0	36704	48440	
3425	0	36740	48336	
3426	0	36672	48416	
3427	0	36728	48320	
3428	0	36664	48352	
3429	0	36704	48336	
3430	0	36641	48200	
3431	0	36676	48288	
3432	0	36572	48344	
3433	0	36640	48288	
3434	0	36568	48306	
3435	0	36608	48256	
3436	0	36532	48304	
3437	0	36554	48160	
3438	0	36500	48256	
3439	0	36536	48160	
3440	0	36472	48232	
3441	0	36552	48192	
3442	0	36496	48224	
3443	0	36562	48042	
3444	0	36472	48224	
3445	0	36544	47810	
3446	0	36482	48200	
3447	0	36546	48160	
3448	0	36512	48192	
3449	0	36608	48144	
3450	0	36552	48080	
3451	0	36640	48160	
3452	0	36576	48148	
3453	0	36672	48120	
3454	0	36580	48160	
3455	0	36632	48032	
3456	0	36608	47848	
3457	0	36674	48136	
3458	0	36576	48184	
3459	0	36656	48088	
3460	0	36596	48216	
3461	0	36684	48160	
3462	0	36612	48224	
3463	0	36672	48096	
3464	0	36596	48168	

