# OpenSignals Text File Format
# {"00:07:80:3B:46:61": {"sensor": ["CUSTOM/0.5/1.0/V"], "device name": "00:07:80:3B:46:61", "column": ["nSeq", "DI", "CH1"], "sync interval": 2, "time": "11:49:25.439", "comments": "", "device connection": "BTH00:07:80:3B:46:61", "channels": [1], "date": "2017-1-17", "mode": 0, "digital IO": [0, 1], "firmware version": 772, "device": "biosignalsplux", "position": 0, "sampling rate": 100, "label": ["CH1"], "resolution": [16], "special": [{}]}}
# EndOfHeader
0	0	60363	
1	0	60396	
2	0	60372	
3	0	60388	
4	0	60359	
5	0	60409	
6	0	60370	
7	0	60418	
8	0	60356	
9	0	60420	
10	0	60373	
11	0	60392	
12	0	60384	
13	0	60422	
14	0	60380	
15	0	60416	
16	0	60368	
17	0	60412	
18	0	60377	
19	0	60408	
20	0	60376	
21	0	60404	
22	0	60390	
23	0	60412	
24	0	60384	
25	0	60416	
26	0	60381	
27	0	60412	
28	0	60372	
29	0	60423	
30	0	60396	
31	0	60412	
32	0	60384	
33	0	60423	
34	0	60380	
35	0	60420	
36	0	60384	
37	0	60404	
38	0	60384	
39	0	60420	
40	0	60386	
41	0	60416	
42	0	60370	
43	0	60423	
44	0	60392	
45	0	60422	
46	0	60376	
47	0	60423	
48	0	60392	
49	0	60412	
50	0	60372	
51	0	60422	
52	0	60397	
53	0	60422	
54	0	60406	
55	0	60416	
56	0	60384	
57	0	60416	
58	0	60380	
59	0	60396	
60	0	60384	
61	0	60412	
62	0	60410	
63	0	60420	
64	0	60388	
65	0	60412	
66	0	60372	
67	0	60416	
68	0	60376	
69	0	60410	
70	0	60388	
71	0	60423	
72	0	60381	
73	0	60420	
74	0	60360	
75	0	60416	
76	0	60394	
77	0	60423	
78	0	60399	
79	0	60416	
80	0	60388	
81	0	60420	
82	0	60376	
83	0	60412	
84	0	60388	
85	0	60423	
86	0	60393	
87	0	60404	
88	0	60392	
89	0	60423	
90	0	60384	
91	0	60423	
92	0	60396	
93	0	60423	
94	0	60380	
95	0	60423	
96	0	60393	
97	0	60423	
98	0	60408	
99	0	60440	
100	0	60412	
101	0	60448	
102	0	60423	
103	0	60452	
104	0	60422	
105	0	60440	
106	0	60420	
107	0	60477	
108	0	60444	
109	0	60485	
110	0	60456	
111	0	60480	
112	0	60453	
113	0	60504	
114	0	60444	
115	0	60511	
116	0	60487	
117	0	60508	
118	0	60474	
119	0	60525	
120	0	60480	
121	0	60523	
122	0	60472	
123	0	60536	
124	0	60490	
125	0	60536	
126	0	60500	
127	0	60528	
128	0	60480	
129	0	60551	
130	0	60504	
131	0	60541	
132	0	60526	
133	0	60551	
134	0	60538	
135	0	60546	
136	0	60520	
137	0	60544	
138	0	60509	
139	0	60540	
140	0	60512	
141	0	60552	
142	0	60512	
143	0	60550	
144	0	60508	
145	0	60544	
146	0	60464	
147	0	60508	
148	0	60462	
149	0	60496	
150	0	60452	
151	0	60472	
152	0	60423	
153	0	60466	
154	0	60408	
155	0	60416	
156	0	60408	
157	0	60412	
158	0	60376	
159	0	60396	
160	0	60358	
161	0	60396	
162	0	60312	
163	0	60374	
164	0	60308	
165	0	60332	
166	0	60295	
167	0	60328	
168	0	60261	
169	0	60308	
170	0	60268	
171	0	60308	
172	0	60274	
173	0	60315	
174	0	60253	
175	0	60306	
176	0	60264	
177	0	60304	
178	0	60268	
179	0	60296	
180	0	60260	
181	0	60324	
182	0	60288	
183	0	60298	
184	0	60280	
185	0	60314	
186	0	60306	
187	0	60335	
188	0	60280	
189	0	60332	
190	0	60308	
191	0	60344	
192	0	60308	
193	0	60384	
194	0	60334	
195	0	60359	
196	0	60295	
197	0	60364	
198	0	60324	
199	0	60376	
200	0	60328	
201	0	60388	
202	0	60334	
203	0	60344	
204	0	60290	
205	0	60332	
206	0	60290	
207	0	60300	
208	0	60252	
209	0	60280	
210	0	60257	
211	0	60295	
212	0	60266	
213	0	60295	
214	0	60276	
215	0	60292	
216	0	60256	
217	0	60292	
218	0	60256	
219	0	60316	
220	0	60248	
221	0	60317	
222	0	60260	
223	0	60288	
224	0	60248	
225	0	60288	
226	0	60285	
227	0	60320	
228	0	60280	
229	0	60320	
230	0	60288	
231	0	60324	
232	0	60272	
233	0	60298	
234	0	60236	
235	0	60268	
236	0	60228	
237	0	60265	
238	0	60231	
239	0	60258	
240	0	60224	
241	0	60256	
242	0	60188	
243	0	60224	
244	0	60185	
245	0	60224	
246	0	60189	
247	0	60231	
248	0	60192	
249	0	60192	
250	0	60154	
251	0	60176	
252	0	60132	
253	0	60152	
254	0	60128	
255	0	60154	
256	0	60084	
257	0	60124	
258	0	60065	
259	0	60088	
260	0	60026	
261	0	60071	
262	0	60025	
263	0	60044	
264	0	60004	
265	0	60046	
266	0	60000	
267	0	60025	
268	0	59952	
269	0	60004	
270	0	59973	
271	0	60039	
272	0	60004	
273	0	60084	
274	0	60039	
275	0	60090	
276	0	60081	
277	0	60140	
278	0	60104	
279	0	60160	
280	0	60129	
281	0	60172	
282	0	60132	
283	0	60151	
284	0	60088	
285	0	60128	
286	0	60061	
287	0	60080	
288	0	60064	
289	0	60128	
290	0	60069	
291	0	60112	
292	0	60039	
293	0	60098	
294	0	60048	
295	0	60096	
296	0	60040	
297	0	60074	
298	0	60032	
299	0	60058	
300	0	60004	
301	0	60016	
302	0	59968	
303	0	60008	
304	0	59952	
305	0	60000	
306	0	59944	
307	0	59984	
308	0	59943	
309	0	59992	
310	0	59952	
311	0	59989	
312	0	59944	
313	0	60012	
314	0	59984	
315	0	60025	
316	0	59968	
317	0	60032	
318	0	59976	
319	0	60025	
320	0	59968	
321	0	60018	
322	0	59984	
323	0	60010	
324	0	59976	
325	0	60032	
326	0	59975	
327	0	60004	
328	0	59952	
329	0	60008	
330	0	59954	
331	0	59996	
332	0	59944	
333	0	60004	
334	0	59911	
335	0	59978	
336	0	59928	
337	0	59982	
338	0	59911	
339	0	59960	
340	0	59876	
341	0	59911	
342	0	59884	
343	0	59911	
344	0	59844	
345	0	59908	
346	0	59848	
347	0	59894	
348	0	59832	
349	0	59864	
350	0	59804	
351	0	59832	
352	0	59760	
353	0	59780	
354	0	59740	
355	0	59768	
356	0	59700	
357	0	59744	
358	0	59654	
359	0	59700	
360	0	59672	
361	0	59740	
362	0	59668	
363	0	59720	
364	0	59714	
365	0	59768	
366	0	59744	
367	0	59820	
368	0	59812	
369	0	59896	
370	0	59882	
371	0	59911	
372	0	59896	
373	0	59952	
374	0	59889	
375	0	59970	
376	0	59892	
377	0	59928	
378	0	59911	
379	0	59936	
380	0	59876	
381	0	59949	
382	0	59802	
383	0	59762	
384	0	59696	
385	0	59688	
386	0	59608	
387	0	59622	
388	0	59536	
389	0	59568	
390	0	59488	
391	0	59520	
392	0	59442	
393	0	59428	
394	0	59202	
395	0	58960	
396	0	58562	
397	0	58345	
398	0	58160	
399	0	58204	
400	0	58072	
401	0	58086	
402	0	57938	
403	0	57920	
404	0	57714	
405	0	57671	
406	0	57414	
407	0	57313	
408	0	56953	
409	0	56736	
410	0	56180	
411	0	55520	
412	0	54114	
413	0	52860	
414	0	51776	
415	0	50936	
416	0	49832	
417	0	48848	
418	0	47538	
419	0	46087	
420	0	44466	
421	0	43447	
422	0	42774	
423	0	43119	
424	0	42556	
425	0	41968	
426	0	41542	
427	0	40874	
428	0	40260	
429	0	40493	
430	0	40082	
431	0	39637	
432	0	39705	
433	0	39360	
434	0	39496	
435	0	39259	
436	0	39347	
437	0	38823	
438	0	39091	
439	0	38272	
440	0	38619	
441	0	38573	
442	0	38459	
443	0	38213	
444	0	38123	
445	0	37762	
446	0	37949	
447	0	37804	
448	0	38324	
449	0	37812	
450	0	38364	
451	0	38584	
452	0	38966	
453	0	39418	
454	0	40018	
455	0	40544	
456	0	40809	
457	0	41400	
458	0	41744	
459	0	41566	
460	0	42092	
461	0	41664	
462	0	41844	
463	0	41664	
464	0	41716	
465	0	41607	
466	0	41799	
467	0	41834	
468	0	42062	
469	0	41824	
470	0	41926	
471	0	41914	
472	0	41614	
473	0	41668	
474	0	41686	
475	0	41370	
476	0	41414	
477	0	41842	
478	0	41808	
479	0	41932	
480	0	41728	
481	0	41872	
482	0	41572	
483	0	41479	
484	0	41328	
485	0	41682	
486	0	41524	
487	0	41674	
488	0	41888	
489	0	41492	
490	0	41908	
491	0	41880	
492	0	41735	
493	0	41547	
494	0	42024	
495	0	41672	
496	0	41720	
497	0	42025	
498	0	41792	
499	0	41888	
500	0	41863	
501	0	41542	
502	0	41634	
503	0	41581	
504	0	41912	
505	0	41826	
506	0	41654	
507	0	41642	
508	0	41324	
509	0	41652	
510	0	41600	
511	0	41360	
512	0	41725	
513	0	41200	
514	0	41536	
515	0	41330	
516	0	41343	
517	0	41316	
518	0	41744	
519	0	41284	
520	0	41644	
521	0	41063	
522	0	41583	
523	0	41296	
524	0	41329	
525	0	41139	
526	0	41475	
527	0	41522	
528	0	41588	
529	0	41528	
530	0	41474	
531	0	41492	
532	0	41325	
533	0	41650	
534	0	41592	
535	0	41426	
536	0	41210	
537	0	41544	
538	0	41406	
539	0	41500	
540	0	41244	
541	0	41498	
542	0	41318	
543	0	41330	
544	0	41543	
545	0	41632	
546	0	41337	
547	0	41479	
548	0	41496	
549	0	41704	
550	0	41454	
551	0	41621	
552	0	41386	
553	0	41686	
554	0	41669	
555	0	41436	
556	0	41522	
557	0	41432	
558	0	41179	
559	0	41552	
560	0	41474	
561	0	41234	
562	0	41592	
563	0	41744	
564	0	41177	
565	0	41669	
566	0	41524	
567	0	41362	
568	0	41601	
569	0	41618	
570	0	41628	
571	0	41572	
572	0	41244	
573	0	41040	
574	0	41388	
575	0	41000	
576	0	41308	
577	0	41170	
578	0	41583	
579	0	41364	
580	0	41560	
581	0	41416	
582	0	41658	
583	0	41652	
584	0	41588	
585	0	41464	
586	0	41659	
587	0	41042	
588	0	41031	
589	0	41640	
590	0	41594	
591	0	41257	
592	0	41516	
593	0	41603	
594	0	41064	
595	0	41280	
596	0	41440	
597	0	41512	
598	0	41414	
599	0	41317	
600	0	41000	
601	0	41422	
602	0	41378	
603	0	41206	
604	0	41322	
605	0	41360	
606	0	41158	
607	0	41213	
608	0	41248	
609	0	41100	
610	0	41208	
611	0	41216	
612	0	41076	
613	0	40967	
614	0	41051	
615	0	41188	
616	0	41048	
617	0	41188	
618	0	41264	
619	0	41048	
620	0	41208	
621	0	41152	
622	0	41346	
623	0	41254	
624	0	41344	
625	0	41444	
626	0	41351	
627	0	41245	
628	0	41343	
629	0	41462	
630	0	41435	
631	0	40936	
632	0	40932	
633	0	41460	
634	0	41462	
635	0	41273	
636	0	41564	
637	0	41031	
638	0	41377	
639	0	40931	
640	0	41316	
641	0	41560	
642	0	41094	
643	0	41274	
644	0	41543	
645	0	41408	
646	0	41160	
647	0	41536	
648	0	41448	
649	0	41072	
650	0	41308	
651	0	40980	
652	0	41312	
653	0	41472	
654	0	41144	
655	0	41518	
656	0	41300	
657	0	41316	
658	0	41097	
659	0	41080	
660	0	41095	
661	0	41240	
662	0	41187	
663	0	41190	
664	0	41080	
665	0	41080	
666	0	41051	
667	0	41284	
668	0	41000	
669	0	41064	
670	0	41255	
671	0	41013	
672	0	40879	
673	0	40696	
674	0	40606	
675	0	40750	
676	0	40642	
677	0	40700	
678	0	40332	
679	0	40898	
680	0	40411	
681	0	40752	
682	0	40266	
683	0	40725	
684	0	40420	
685	0	40724	
686	0	40714	
687	0	40796	
688	0	40613	
689	0	40224	
690	0	40861	
691	0	40754	
692	0	40536	
693	0	40417	
694	0	40356	
695	0	40611	
696	0	40800	
697	0	41004	
698	0	40682	
699	0	40368	
700	0	40690	
701	0	40784	
702	0	40746	
703	0	41112	
704	0	40868	
705	0	41312	
706	0	41400	
707	0	41221	
708	0	41408	
709	0	41762	
710	0	41710	
711	0	41836	
712	0	41786	
713	0	42248	
714	0	42202	
715	0	42503	
716	0	42584	
717	0	42644	
718	0	42722	
719	0	42559	
720	0	42429	
721	0	42834	
722	0	42819	
723	0	42994	
724	0	42624	
725	0	43024	
726	0	43136	
727	0	43056	
728	0	42740	
729	0	43115	
730	0	42976	
731	0	43112	
732	0	42758	
733	0	42732	
734	0	42688	
735	0	43143	
736	0	43028	
737	0	42756	
738	0	42735	
739	0	43126	
740	0	43116	
741	0	43120	
742	0	43099	
743	0	43286	
744	0	42953	
745	0	43264	
746	0	43180	
747	0	43128	
748	0	43280	
749	0	42898	
750	0	42971	
751	0	43433	
752	0	43132	
753	0	43236	
754	0	43480	
755	0	43130	
756	0	43138	
757	0	43312	
758	0	43570	
759	0	43680	
760	0	43337	
761	0	43326	
762	0	43668	
763	0	43604	
764	0	43674	
765	0	43497	
766	0	43527	
767	0	43847	
768	0	43280	
769	0	43564	
770	0	43650	
771	0	43380	
772	0	43328	
773	0	43632	
774	0	43686	
775	0	43589	
776	0	43515	
777	0	43668	
778	0	43348	
779	0	43399	
780	0	43250	
781	0	43128	
782	0	43615	
783	0	43556	
784	0	43138	
785	0	43552	
786	0	43066	
787	0	43456	
788	0	43337	
789	0	43432	
790	0	43104	
791	0	43198	
792	0	43228	
793	0	43360	
794	0	42944	
795	0	43380	
796	0	43344	
797	0	42970	
798	0	43348	
799	0	43280	
800	0	42836	
801	0	42916	
802	0	42922	
803	0	43328	
804	0	42988	
805	0	43048	
806	0	43145	
807	0	43379	
808	0	43136	
809	0	42890	
810	0	43330	
811	0	43052	
812	0	43263	
813	0	43334	
814	0	42920	
815	0	42882	
816	0	43015	
817	0	42916	
818	0	42899	
819	0	42935	
820	0	42818	
821	0	43312	
822	0	43258	
823	0	42832	
824	0	43083	
825	0	43312	
826	0	42932	
827	0	43295	
828	0	42866	
829	0	43196	
830	0	42984	
831	0	43010	
832	0	43196	
833	0	43274	
834	0	43164	
835	0	42940	
836	0	43176	
837	0	43032	
838	0	43229	
839	0	42816	
840	0	42868	
841	0	43208	
842	0	42832	
843	0	43080	
844	0	43178	
845	0	43285	
846	0	42960	
847	0	42896	
848	0	43138	
849	0	43097	
850	0	43254	
851	0	43312	
852	0	43228	
853	0	42880	
854	0	42810	
855	0	42977	
856	0	43229	
857	0	42964	
858	0	42918	
859	0	43309	
860	0	43212	
861	0	42906	
862	0	43279	
863	0	43103	
864	0	43315	
865	0	43300	
866	0	42866	
867	0	43303	
868	0	42864	
869	0	42984	
870	0	42772	
871	0	43359	
872	0	42958	
873	0	43368	
874	0	43096	
875	0	43220	
876	0	42792	
877	0	43321	
878	0	43015	
879	0	43186	
880	0	43214	
881	0	42824	
882	0	43002	
883	0	43098	
884	0	43255	
885	0	42922	
886	0	43163	
887	0	43000	
888	0	42842	
889	0	43232	
890	0	43218	
891	0	43335	
892	0	42770	
893	0	43304	
894	0	43008	
895	0	42816	
896	0	43078	
897	0	43159	
898	0	42802	
899	0	42844	
900	0	42900	
901	0	43064	
902	0	43230	
903	0	43120	
904	0	43104	
905	0	42920	
906	0	42774	
907	0	42732	
908	0	43237	
909	0	43228	
910	0	42790	
911	0	42974	
912	0	42733	
913	0	42848	
914	0	42756	
915	0	43160	
916	0	43212	
917	0	42648	
918	0	43164	
919	0	42888	
920	0	43160	
921	0	42744	
922	0	42941	
923	0	42768	
924	0	42744	
925	0	42804	
926	0	42834	
927	0	42733	
928	0	42700	
929	0	42936	
930	0	42752	
931	0	42839	
932	0	43015	
933	0	42680	
934	0	42994	
935	0	42734	
936	0	43042	
937	0	43117	
938	0	42648	
939	0	43207	
940	0	42706	
941	0	43156	
942	0	43040	
943	0	43014	
944	0	43015	
945	0	42740	
946	0	42746	
947	0	43244	
948	0	42954	
949	0	42944	
950	0	43069	
951	0	42991	
952	0	42660	
953	0	43072	
954	0	42900	
955	0	43100	
956	0	43012	
957	0	42804	
958	0	43128	
959	0	43240	
960	0	42735	
961	0	42822	
962	0	42902	
963	0	43124	
964	0	42887	
965	0	43142	
966	0	43104	
967	0	43002	
968	0	43180	
969	0	42976	
970	0	42768	
971	0	43186	
972	0	42968	
973	0	43060	
974	0	42669	
975	0	42788	
976	0	42832	
977	0	42867	
978	0	42826	
979	0	43152	
980	0	43015	
981	0	42858	
982	0	42802	
983	0	42782	
984	0	42792	
985	0	43152	
986	0	43033	
987	0	43207	
988	0	43164	
989	0	43207	
990	0	42856	
991	0	42660	
992	0	43148	
993	0	42928	
994	0	43015	
995	0	43104	
996	0	42837	
997	0	42738	
998	0	42822	
999	0	43088	
1000	0	43105	
1001	0	42951	
1002	0	42970	
1003	0	43052	
1004	0	43054	
1005	0	43014	
1006	0	42674	
1007	0	42908	
1008	0	43096	
1009	0	42600	
1010	0	42698	
1011	0	42694	
1012	0	42765	
1013	0	42992	
1014	0	42917	
1015	0	42836	
1016	0	42644	
1017	0	42950	
1018	0	43064	
1019	0	43006	
1020	0	42813	
1021	0	43012	
1022	0	42860	
1023	0	42742	
1024	0	43058	
1025	0	42906	
1026	0	43064	
1027	0	43015	
1028	0	42852	
1029	0	42823	
1030	0	42824	
1031	0	42724	
1032	0	42950	
1033	0	42725	
1034	0	42974	
1035	0	42922	
1036	0	42592	
1037	0	42952	
1038	0	42629	
1039	0	43015	
1040	0	42688	
1041	0	42930	
1042	0	42824	
1043	0	42560	
1044	0	42848	
1045	0	42481	
1046	0	42840	
1047	0	42896	
1048	0	42456	
1049	0	42898	
1050	0	42904	
1051	0	42904	
1052	0	42448	
1053	0	42921	
1054	0	42386	
1055	0	42734	
1056	0	42469	
1057	0	42478	
1058	0	42528	
1059	0	42520	
1060	0	42760	
1061	0	42794	
1062	0	42799	
1063	0	42586	
1064	0	42448	
1065	0	42382	
1066	0	42819	
1067	0	42770	
1068	0	42532	
1069	0	42823	
1070	0	42427	
1071	0	42708	
1072	0	42776	
1073	0	42692	
1074	0	42764	
1075	0	42795	
1076	0	42722	
1077	0	42721	
1078	0	42528	
1079	0	42532	
1080	0	42529	
1081	0	42688	
1082	0	42578	
1083	0	42486	
1084	0	42660	
1085	0	42610	
1086	0	42648	
1087	0	42502	
1088	0	42532	
1089	0	42587	
1090	0	42404	
1091	0	42400	
1092	0	42386	
1093	0	42586	
1094	0	42491	
1095	0	42492	
1096	0	42548	
1097	0	42492	
1098	0	42666	
1099	0	42547	
1100	0	42344	
1101	0	42534	
1102	0	42764	
1103	0	42722	
1104	0	43315	
1105	0	43252	
1106	0	43527	
1107	0	44057	
1108	0	44735	
1109	0	45276	
1110	0	46272	
1111	0	46808	
1112	0	47814	
1113	0	49708	
1114	0	52230	
1115	0	54902	
1116	0	55623	
1117	0	56105	
1118	0	56392	
1119	0	56716	
1120	0	56826	
1121	0	57008	
1122	0	57055	
1123	0	57196	
1124	0	57168	
1125	0	57256	
1126	0	57213	
1127	0	57288	
1128	0	57240	
1129	0	57320	
1130	0	57232	
1131	0	57326	
1132	0	57248	
1133	0	57351	
1134	0	57274	
1135	0	57348	
1136	0	57248	
1137	0	57298	
1138	0	57147	
1139	0	57084	
1140	0	56786	
1141	0	56581	
1142	0	56316	
1143	0	56320	
1144	0	56160	
1145	0	56256	
1146	0	56242	
1147	0	56384	
1148	0	56402	
1149	0	56583	
1150	0	56560	
1151	0	56728	
1152	0	56666	
1153	0	56839	
1154	0	56801	
1155	0	56933	
1156	0	56888	
1157	0	57088	
1158	0	57132	
1159	0	57336	
1160	0	57396	
1161	0	57588	
1162	0	57686	
1163	0	57863	
1164	0	57884	
1165	0	58072	
1166	0	58092	
1167	0	58285	
1168	0	58314	
1169	0	58488	
1170	0	58527	
1171	0	58709	
1172	0	58744	
1173	0	58916	
1174	0	58936	
1175	0	59090	
1176	0	59084	
1177	0	59194	
1178	0	59232	
1179	0	59304	
1180	0	59296	
1181	0	59398	
1182	0	59399	
1183	0	59492	
1184	0	59489	
1185	0	59532	
1186	0	59525	
1187	0	59616	
1188	0	59625	
1189	0	59688	
1190	0	59660	
1191	0	59731	
1192	0	59716	
1193	0	59772	
1194	0	59772	
1195	0	59832	
1196	0	59820	
1197	0	59867	
1198	0	59878	
1199	0	59911	
1200	0	59911	
1201	0	59946	
1202	0	59960	
1203	0	59985	
1204	0	59978	
1205	0	60020	
1206	0	59978	
1207	0	60056	
1208	0	60016	
1209	0	60076	
1210	0	60039	
1211	0	60072	
1212	0	60049	
1213	0	60088	
1214	0	60040	
1215	0	60088	
1216	0	60072	
1217	0	60088	
1218	0	60080	
1219	0	60088	
1220	0	60084	
1221	0	60120	
1222	0	60088	
1223	0	60120	
1224	0	60102	
1225	0	60120	
1226	0	60090	
1227	0	60104	
1228	0	60088	
1229	0	60116	
1230	0	60108	
1231	0	60132	
1232	0	60120	
1233	0	60160	
1234	0	60123	
1235	0	60144	
1236	0	60120	
1237	0	60162	
1238	0	60118	
1239	0	60148	
1240	0	60112	
1241	0	60144	
1242	0	60140	
1243	0	60160	
1244	0	60103	
1245	0	60164	
1246	0	60125	
1247	0	60167	
1248	0	60112	
1249	0	60159	
1250	0	60127	
1251	0	60162	
1252	0	60116	
1253	0	60144	
1254	0	60140	
1255	0	60176	
1256	0	60128	
1257	0	60167	
1258	0	60140	
1259	0	60178	
1260	0	60140	
1261	0	60167	
1262	0	60124	
1263	0	60148	
1264	0	60124	
1265	0	60172	
1266	0	60124	
1267	0	60184	
1268	0	60136	
1269	0	60152	
1270	0	60141	
1271	0	60188	
1272	0	60156	
1273	0	60160	
1274	0	60128	
1275	0	60211	
1276	0	60152	
1277	0	60192	
1278	0	60152	
1279	0	60184	
1280	0	60156	
1281	0	60176	
1282	0	60152	
1283	0	60185	
1284	0	60141	
1285	0	60196	
1286	0	60154	
1287	0	60196	
1288	0	60160	
1289	0	60209	
1290	0	60167	
1291	0	60200	
1292	0	60140	
1293	0	60212	
1294	0	60154	
1295	0	60200	
1296	0	60152	
1297	0	60193	
1298	0	60160	
1299	0	60188	
1300	0	60144	
1301	0	60184	
1302	0	60128	
1303	0	60200	
1304	0	60178	
1305	0	60212	
1306	0	60176	
1307	0	60208	
1308	0	60167	
1309	0	60204	
1310	0	60167	
1311	0	60221	
1312	0	60160	
1313	0	60192	
1314	0	60164	
1315	0	60208	
1316	0	60188	
1317	0	60196	
1318	0	60152	
1319	0	60192	
1320	0	60176	
1321	0	60224	
1322	0	60180	
1323	0	60201	
1324	0	60188	
1325	0	60224	
1326	0	60172	
1327	0	60200	
1328	0	60189	
1329	0	60208	
1330	0	60184	
1331	0	60231	
1332	0	60184	
1333	0	60196	
1334	0	60170	
1335	0	60204	
1336	0	60188	
1337	0	60231	
1338	0	60180	
1339	0	60236	
1340	0	60189	
1341	0	60231	
1342	0	60199	
1343	0	60212	
1344	0	60192	
1345	0	60216	
1346	0	60176	
1347	0	60212	
1348	0	60185	
1349	0	60213	
1350	0	60166	
1351	0	60204	
1352	0	60170	
1353	0	60200	
1354	0	60192	
1355	0	60204	
1356	0	60172	
1357	0	60192	
1358	0	60184	
1359	0	60208	
1360	0	60164	
1361	0	60212	
1362	0	60186	
1363	0	60193	
1364	0	60156	
1365	0	60216	
1366	0	60180	
1367	0	60180	
1368	0	60144	
1369	0	60189	
1370	0	60170	
1371	0	60204	
1372	0	60168	
1373	0	60188	
1374	0	60180	
1375	0	60188	
1376	0	60152	
1377	0	60192	
1378	0	60167	
1379	0	60196	
1380	0	60160	
1381	0	60168	
1382	0	60167	
1383	0	60184	
1384	0	60160	
1385	0	60182	
1386	0	60128	
1387	0	60188	
1388	0	60152	
1389	0	60183	
1390	0	60148	
1391	0	60168	
1392	0	60148	
1393	0	60178	
1394	0	60128	
1395	0	60164	
1396	0	60128	
1397	0	60148	
1398	0	60148	
1399	0	60157	
1400	0	60121	
1401	0	60182	
1402	0	60140	
1403	0	60148	
1404	0	60142	
1405	0	60144	
1406	0	60104	
1407	0	60164	
1408	0	60133	
1409	0	60167	
1410	0	60128	
1411	0	60156	
1412	0	60128	
1413	0	60167	
1414	0	60118	
1415	0	60180	
1416	0	60116	
1417	0	60150	
1418	0	60124	
1419	0	60167	
1420	0	60136	
1421	0	60144	
1422	0	60112	
1423	0	60128	
1424	0	60112	
1425	0	60161	
1426	0	60108	
1427	0	60166	
1428	0	60108	
1429	0	60152	
1430	0	60128	
1431	0	60128	
1432	0	60132	
1433	0	60130	
1434	0	60116	
1435	0	60132	
1436	0	60096	
1437	0	60128	
1438	0	60084	
1439	0	60120	
1440	0	60114	
1441	0	60120	
1442	0	60103	
1443	0	60128	
1444	0	60112	
1445	0	60154	
1446	0	60104	
1447	0	60132	
1448	0	60120	
1449	0	60148	
1450	0	60098	
1451	0	60132	
1452	0	60088	
1453	0	60116	
1454	0	60112	
1455	0	60137	
1456	0	60103	
1457	0	60128	
1458	0	60096	
1459	0	60112	
1460	0	60080	
1461	0	60134	
1462	0	60100	
1463	0	60128	
1464	0	60072	
1465	0	60120	
1466	0	60092	
1467	0	60144	
1468	0	60112	
1469	0	60104	
1470	0	60096	
1471	0	60146	
1472	0	60072	
1473	0	60124	
1474	0	60100	
1475	0	60132	
1476	0	60108	
1477	0	60120	
1478	0	60103	
1479	0	60112	
1480	0	60080	
1481	0	60103	
1482	0	60100	
1483	0	60096	
1484	0	60103	
1485	0	60124	
1486	0	60080	
1487	0	60112	
1488	0	60096	
1489	0	60132	
1490	0	60086	
1491	0	60116	
1492	0	60082	
1493	0	60092	
1494	0	60072	
1495	0	60096	
1496	0	60080	
1497	0	60138	
1498	0	60103	
1499	0	60098	
1500	0	60064	
1501	0	60128	
1502	0	60080	
1503	0	60102	
1504	0	60101	
1505	0	60116	
1506	0	60082	
1507	0	60108	
1508	0	60088	
1509	0	60104	
1510	0	60072	
1511	0	60104	
1512	0	60086	
1513	0	60130	
1514	0	60080	
1515	0	60108	
1516	0	60072	
1517	0	60092	
1518	0	60090	
1519	0	60096	
1520	0	60096	
1521	0	60098	
1522	0	60096	
1523	0	60103	
1524	0	60052	
1525	0	60132	
1526	0	60084	
1527	0	60106	
1528	0	60076	
1529	0	60096	
1530	0	60093	
1531	0	60088	
1532	0	60064	
1533	0	60088	
1534	0	60068	
1535	0	60088	
1536	0	60067	
1537	0	60103	
1538	0	60080	
1539	0	60103	
1540	0	60056	
1541	0	60096	
1542	0	60056	
1543	0	60068	
1544	0	60056	
1545	0	60092	
1546	0	60052	
1547	0	60115	
1548	0	60068	
1549	0	60080	
1550	0	60079	
1551	0	60064	
1552	0	60069	
1553	0	60088	
1554	0	60072	
1555	0	60096	
1556	0	60072	
1557	0	60084	
1558	0	60080	
1559	0	60092	

