# OpenSignals Text File Format
# {"00:07:80:3B:46:61": {"sensor": ["TEMP"], "device name": "00:07:80:3B:46:61", "column": ["nSeq", "DI", "PORT3_CHN1"], "sync interval": 2, "time": "12:31:3.278", "comments": "", "device connection": "BTH00:07:80:3B:46:61", "channels": [3], "date": "2017-1-23", "mode": 0, "digital IO": [0, 1], "firmware version": 772, "device": "channeller", "position": 0, "sampling rate": 1000, "label": ["PORT3_CHN1"], "resolution": [16], "special": [{"SpO2": [80, 40, 5, 4, 5, 5]}]}}
# EndOfHeader
0	0	33628	
1	0	33632	
2	0	33612	
3	0	33608	
4	0	33636	
5	0	33618	
6	0	33620	
7	0	33612	
8	0	33624	
9	0	33610	
10	0	33634	
11	0	33616	
12	0	33616	
13	0	33632	
14	0	33618	
15	0	33628	
16	0	33632	
17	0	33612	
18	0	33646	
19	0	33618	
20	0	33620	
21	0	33608	
22	0	33620	
23	0	33628	
24	0	33610	
25	0	33636	
26	0	33620	
27	0	33632	
28	0	33616	
29	0	33632	
30	0	33624	
31	0	33628	
32	0	33632	
33	0	33640	
34	0	33640	
35	0	33632	
36	0	33648	
37	0	33632	
38	0	33632	
39	0	33620	
40	0	33629	
41	0	33625	
42	0	33608	
43	0	33612	
44	0	33628	
45	0	33608	
46	0	33632	
47	0	33612	
48	0	33620	
49	0	33616	
50	0	33628	
51	0	33604	
52	0	33629	
53	0	33612	
54	0	33628	
55	0	33613	
56	0	33632	
57	0	33608	
58	0	33632	
59	0	33628	
60	0	33624	
61	0	33620	
62	0	33624	
63	0	33632	
64	0	33616	
65	0	33634	
66	0	33632	
67	0	33640	
68	0	33628	
69	0	33626	
70	0	33616	
71	0	33636	
72	0	33621	
73	0	33640	
74	0	33626	
75	0	33626	
76	0	33616	
77	0	33624	
78	0	33620	
79	0	33652	
80	0	33626	
81	0	33632	
82	0	33640	
83	0	33633	
84	0	33620	
85	0	33610	
86	0	33632	
87	0	33636	
88	0	33612	
89	0	33618	
90	0	33632	
91	0	33632	
92	0	33624	
93	0	33640	
94	0	33648	
95	0	33628	
96	0	33616	
97	0	33633	
98	0	33630	
99	0	33624	
100	0	33616	
101	0	33620	
102	0	33636	
103	0	33632	
104	0	33620	
105	0	33618	
106	0	33616	
107	0	33632	
108	0	33622	
109	0	33624	
110	0	33632	
111	0	33618	
112	0	33616	
113	0	33624	
114	0	33628	
115	0	33618	
116	0	33632	
117	0	33632	
118	0	33618	
119	0	33644	
120	0	33632	
121	0	33622	
122	0	33629	
123	0	33636	
124	0	33633	
125	0	33634	
126	0	33627	
127	0	33616	
128	0	33636	
129	0	33633	
130	0	33632	
131	0	33620	
132	0	33636	
133	0	33628	
134	0	33616	
135	0	33640	
136	0	33636	
137	0	33632	
138	0	33620	
139	0	33632	
140	0	33632	
141	0	33634	
142	0	33620	
143	0	33610	
144	0	33632	
145	0	33624	
146	0	33632	
147	0	33636	
148	0	33616	
149	0	33642	
150	0	33628	
151	0	33640	
152	0	33622	
153	0	33640	
154	0	33624	
155	0	33626	
156	0	33644	
157	0	33633	
158	0	33628	
159	0	33632	
160	0	33636	
161	0	33632	
162	0	33640	
163	0	33624	
164	0	33636	
165	0	33626	
166	0	33634	
167	0	33624	
168	0	33624	
169	0	33604	
170	0	33624	
171	0	33620	
172	0	33644	
173	0	33629	
174	0	33632	
175	0	33640	
176	0	33624	
177	0	33632	
178	0	33632	
179	0	33624	
180	0	33618	
181	0	33621	
182	0	33638	
183	0	33649	
184	0	33636	
185	0	33610	
186	0	33624	
187	0	33628	
188	0	33648	
189	0	33632	
190	0	33632	
191	0	33618	
192	0	33616	
193	0	33620	
194	0	33632	
195	0	33642	
196	0	33628	
197	0	33618	
198	0	33608	
199	0	33640	
200	0	33624	
201	0	33629	
202	0	33608	
203	0	33650	
204	0	33628	
205	0	33618	
206	0	33624	
207	0	33612	
208	0	33624	
209	0	33624	
210	0	33632	
211	0	33634	
212	0	33626	
213	0	33620	
214	0	33622	
215	0	33636	
216	0	33628	
217	0	33612	
218	0	33628	
219	0	33628	
220	0	33628	
221	0	33616	
222	0	33616	
223	0	33629	
224	0	33640	
225	0	33624	
226	0	33636	
227	0	33632	
228	0	33632	
229	0	33644	
230	0	33632	
231	0	33624	
232	0	33632	
233	0	33618	
234	0	33624	
235	0	33618	
236	0	33634	
237	0	33618	
238	0	33618	
239	0	33616	
240	0	33624	
241	0	33620	
242	0	33640	
243	0	33616	
244	0	33620	
245	0	33636	
246	0	33634	
247	0	33632	
248	0	33636	
249	0	33612	
250	0	33634	
251	0	33626	
252	0	33613	
253	0	33640	
254	0	33644	
255	0	33632	
256	0	33624	
257	0	33621	
258	0	33624	
259	0	33632	
260	0	33630	
261	0	33614	
262	0	33636	
263	0	33640	
264	0	33608	
265	0	33632	
266	0	33640	
267	0	33620	
268	0	33612	
269	0	33626	
270	0	33632	
271	0	33620	
272	0	33620	
273	0	33618	
274	0	33651	
275	0	33626	
276	0	33640	
277	0	33616	
278	0	33618	
279	0	33624	
280	0	33626	
281	0	33632	
282	0	33644	
283	0	33619	
284	0	33624	
285	0	33632	
286	0	33640	
287	0	33640	
288	0	33653	
289	0	33620	
290	0	33634	
291	0	33616	
292	0	33640	
293	0	33620	
294	0	33620	
295	0	33633	
296	0	33616	
297	0	33640	
298	0	33620	
299	0	33640	
300	0	33632	
301	0	33616	
302	0	33642	
303	0	33624	
304	0	33616	
305	0	33616	
306	0	33632	
307	0	33620	
308	0	33626	
309	0	33616	
310	0	33628	
311	0	33636	
312	0	33632	
313	0	33624	
314	0	33628	
315	0	33642	
316	0	33634	
317	0	33644	
318	0	33642	
319	0	33636	
320	0	33636	
321	0	33634	
322	0	33616	
323	0	33628	
324	0	33634	
325	0	33620	
326	0	33628	
327	0	33632	
328	0	33652	
329	0	33624	
330	0	33628	
331	0	33640	
332	0	33638	
333	0	33632	
334	0	33636	
335	0	33628	
336	0	33650	
337	0	33634	
338	0	33628	
339	0	33634	
340	0	33632	
341	0	33632	
342	0	33642	
343	0	33616	
344	0	33640	
345	0	33632	
346	0	33645	
347	0	33632	
348	0	33616	
349	0	33644	
350	0	33640	
351	0	33640	
352	0	33626	
353	0	33632	
354	0	33648	
355	0	33633	
356	0	33648	
357	0	33628	
358	0	33627	
359	0	33656	
360	0	33636	
361	0	33657	
362	0	33629	
363	0	33632	
364	0	33610	
365	0	33644	
366	0	33640	
367	0	33636	
368	0	33634	
369	0	33632	
370	0	33648	
371	0	33640	
372	0	33660	
373	0	33616	
374	0	33636	
375	0	33632	
376	0	33626	
377	0	33640	
378	0	33628	
379	0	33642	
380	0	33636	
381	0	33642	
382	0	33656	
383	0	33626	
384	0	33646	
385	0	33620	
386	0	33644	
387	0	33616	
388	0	33648	
389	0	33640	
390	0	33632	
391	0	33648	
392	0	33624	
393	0	33632	
394	0	33652	
395	0	33628	
396	0	33637	
397	0	33637	
398	0	33624	
399	0	33644	
400	0	33628	
401	0	33642	
402	0	33648	
403	0	33632	
404	0	33636	
405	0	33632	
406	0	33632	
407	0	33640	
408	0	33632	
409	0	33640	
410	0	33637	
411	0	33628	
412	0	33620	
413	0	33627	
414	0	33640	
415	0	33636	
416	0	33648	
417	0	33610	
418	0	33656	
419	0	33648	
420	0	33640	
421	0	33628	
422	0	33628	
423	0	33634	
424	0	33634	
425	0	33656	
426	0	33632	
427	0	33632	
428	0	33660	
429	0	33636	
430	0	33632	
431	0	33638	
432	0	33624	
433	0	33616	
434	0	33638	
435	0	33628	
436	0	33642	
437	0	33636	
438	0	33640	
439	0	33652	
440	0	33640	
441	0	33660	
442	0	33626	
443	0	33620	
444	0	33658	
445	0	33632	
446	0	33650	
447	0	33648	
448	0	33644	
449	0	33632	
450	0	33640	
451	0	33640	
452	0	33660	
453	0	33632	
454	0	33636	
455	0	33616	
456	0	33632	
457	0	33612	
458	0	33636	
459	0	33644	
460	0	33618	
461	0	33644	
462	0	33640	
463	0	33632	
464	0	33636	
465	0	33640	
466	0	33620	
467	0	33648	
468	0	33640	
469	0	33628	
470	0	33640	
471	0	33656	
472	0	33632	
473	0	33620	
474	0	33658	
475	0	33634	
476	0	33644	
477	0	33634	
478	0	33636	
479	0	33618	
480	0	33632	
481	0	33640	
482	0	33632	
483	0	33636	
484	0	33636	
485	0	33608	
486	0	33640	
487	0	33634	
488	0	33648	
489	0	33636	
490	0	33632	
491	0	33626	
492	0	33642	
493	0	33620	
494	0	33640	
495	0	33632	
496	0	33652	
497	0	33640	
498	0	33664	
499	0	33632	
500	0	33628	
501	0	33640	
502	0	33644	
503	0	33642	
504	0	33626	
505	0	33628	
506	0	33624	
507	0	33652	
508	0	33634	
509	0	33652	
510	0	33640	
511	0	33616	
512	0	33624	
513	0	33629	
514	0	33620	
515	0	33646	
516	0	33648	
517	0	33648	
518	0	33648	
519	0	33640	
520	0	33637	
521	0	33644	
522	0	33632	
523	0	33650	
524	0	33657	
525	0	33642	
526	0	33624	
527	0	33632	
528	0	33642	
529	0	33650	
530	0	33642	
531	0	33636	
532	0	33626	
533	0	33664	
534	0	33644	
535	0	33636	
536	0	33620	
537	0	33644	
538	0	33632	
539	0	33640	
540	0	33626	
541	0	33636	
542	0	33644	
543	0	33656	
544	0	33633	
545	0	33626	
546	0	33642	
547	0	33642	
548	0	33624	
549	0	33648	
550	0	33642	
551	0	33641	
552	0	33636	
553	0	33632	
554	0	33640	
555	0	33644	
556	0	33644	
557	0	33640	
558	0	33652	
559	0	33652	
560	0	33624	
561	0	33646	
562	0	33650	
563	0	33649	
564	0	33656	
565	0	33652	
566	0	33636	
567	0	33628	
568	0	33632	
569	0	33640	
570	0	33640	
571	0	33648	
572	0	33636	
573	0	33640	
574	0	33625	
575	0	33632	
576	0	33632	
577	0	33629	
578	0	33652	
579	0	33648	
580	0	33636	
581	0	33648	
582	0	33636	
583	0	33636	
584	0	33628	
585	0	33646	
586	0	33624	
587	0	33627	
588	0	33632	
589	0	33666	
590	0	33642	
591	0	33628	
592	0	33656	
593	0	33640	
594	0	33661	
595	0	33628	
596	0	33656	
597	0	33650	
598	0	33636	
599	0	33630	
600	0	33640	
601	0	33640	
602	0	33648	
603	0	33671	
604	0	33640	
605	0	33658	
606	0	33640	
607	0	33626	
608	0	33629	
609	0	33644	
610	0	33648	
611	0	33638	
612	0	33648	
613	0	33650	
614	0	33632	
615	0	33632	
616	0	33648	
617	0	33648	
618	0	33644	
619	0	33642	
620	0	33638	
621	0	33626	
622	0	33644	
623	0	33652	
624	0	33644	
625	0	33645	
626	0	33624	
627	0	33640	
628	0	33626	
629	0	33636	
630	0	33637	
631	0	33654	
632	0	33656	
633	0	33656	
634	0	33652	
635	0	33632	
636	0	33660	
637	0	33632	
638	0	33638	
639	0	33632	
640	0	33632	
641	0	33632	
642	0	33668	
643	0	33659	
644	0	33628	
645	0	33627	
646	0	33626	
647	0	33664	
648	0	33642	
649	0	33648	
650	0	33648	
651	0	33644	
652	0	33646	
653	0	33644	
654	0	33646	
655	0	33648	
656	0	33637	
657	0	33669	
658	0	33656	
659	0	33650	
660	0	33620	
661	0	33642	
662	0	33666	
663	0	33632	
664	0	33650	
665	0	33648	
666	0	33632	
667	0	33656	
668	0	33632	
669	0	33632	
670	0	33640	
671	0	33644	
672	0	33632	
673	0	33648	
674	0	33660	
675	0	33652	
676	0	33664	
677	0	33640	
678	0	33640	
679	0	33664	
680	0	33650	
681	0	33640	
682	0	33656	
683	0	33660	
684	0	33648	
685	0	33650	
686	0	33648	
687	0	33658	
688	0	33640	
689	0	33632	
690	0	33656	
691	0	33652	
692	0	33632	
693	0	33624	
694	0	33650	
695	0	33664	
696	0	33644	
697	0	33648	
698	0	33634	
699	0	33656	
700	0	33644	
701	0	33652	
702	0	33656	
703	0	33648	
704	0	33624	
705	0	33654	
706	0	33640	
707	0	33658	
708	0	33636	
709	0	33660	
710	0	33648	
711	0	33648	
712	0	33636	
713	0	33636	
714	0	33640	
715	0	33644	
716	0	33644	
717	0	33640	
718	0	33650	
719	0	33632	
720	0	33652	
721	0	33640	
722	0	33656	
723	0	33652	
724	0	33664	
725	0	33640	
726	0	33660	
727	0	33632	
728	0	33624	
729	0	33648	
730	0	33646	
731	0	33632	
732	0	33652	
733	0	33644	
734	0	33648	
735	0	33660	
736	0	33640	
737	0	33636	
738	0	33656	
739	0	33660	
740	0	33668	
741	0	33640	
742	0	33638	
743	0	33656	
744	0	33668	
745	0	33656	
746	0	33650	
747	0	33650	
748	0	33644	
749	0	33670	
750	0	33640	
751	0	33648	
752	0	33656	
753	0	33640	
754	0	33636	
755	0	33636	
756	0	33632	
757	0	33636	
758	0	33652	
759	0	33626	
760	0	33660	
761	0	33644	
762	0	33634	
763	0	33650	
764	0	33648	
765	0	33658	
766	0	33642	
767	0	33668	
768	0	33652	
769	0	33632	
770	0	33641	
771	0	33640	
772	0	33632	
773	0	33642	
774	0	33664	
775	0	33636	
776	0	33660	
777	0	33668	
778	0	33651	
779	0	33660	
780	0	33636	
781	0	33650	
782	0	33642	
783	0	33660	
784	0	33656	
785	0	33640	
786	0	33642	
787	0	33636	
788	0	33632	
789	0	33644	
790	0	33656	
791	0	33648	
792	0	33640	
793	0	33668	
794	0	33657	
795	0	33660	
796	0	33658	
797	0	33628	
798	0	33669	
799	0	33664	
800	0	33644	
801	0	33648	
802	0	33640	
803	0	33646	
804	0	33632	
805	0	33664	
806	0	33661	
807	0	33632	
808	0	33648	
809	0	33656	
810	0	33636	
811	0	33652	
812	0	33642	
813	0	33672	
814	0	33642	
815	0	33644	
816	0	33660	
817	0	33643	
818	0	33656	
819	0	33648	
820	0	33659	
821	0	33664	
822	0	33664	
823	0	33666	
824	0	33664	
825	0	33664	
826	0	33656	
827	0	33664	
828	0	33664	
829	0	33658	
830	0	33640	
831	0	33656	
832	0	33648	
833	0	33642	
834	0	33640	
835	0	33657	
836	0	33670	
837	0	33636	
838	0	33648	
839	0	33671	
840	0	33652	
841	0	33648	
842	0	33651	
843	0	33660	
844	0	33632	
845	0	33658	
846	0	33642	
847	0	33640	
848	0	33648	
849	0	33634	
850	0	33651	
851	0	33650	
852	0	33664	
853	0	33636	
854	0	33664	
855	0	33632	
856	0	33656	
857	0	33660	
858	0	33656	
859	0	33642	
860	0	33660	
861	0	33656	
862	0	33664	
863	0	33660	
864	0	33652	
865	0	33648	
866	0	33666	
867	0	33648	
868	0	33648	
869	0	33668	
870	0	33658	
871	0	33656	
872	0	33661	
873	0	33648	
874	0	33660	
875	0	33646	
876	0	33666	
877	0	33640	
878	0	33652	
879	0	33657	
880	0	33648	
881	0	33657	
882	0	33668	
883	0	33636	
884	0	33632	
885	0	33661	
886	0	33664	
887	0	33657	
888	0	33646	
889	0	33648	
890	0	33664	
891	0	33656	
892	0	33640	
893	0	33670	
894	0	33642	
895	0	33648	
896	0	33648	
897	0	33656	
898	0	33656	
899	0	33644	
900	0	33637	
901	0	33648	
902	0	33656	
903	0	33648	
904	0	33648	
905	0	33652	
906	0	33634	
907	0	33672	
908	0	33652	
909	0	33636	
910	0	33628	
911	0	33648	
912	0	33669	
913	0	33644	
914	0	33664	
915	0	33648	
916	0	33648	
917	0	33668	
918	0	33668	
919	0	33660	
920	0	33670	
921	0	33652	
922	0	33664	
923	0	33650	
924	0	33664	
925	0	33650	
926	0	33640	
927	0	33648	
928	0	33672	
929	0	33646	
930	0	33664	
931	0	33652	
932	0	33674	
933	0	33658	
934	0	33648	
935	0	33648	
936	0	33656	
937	0	33660	
938	0	33674	
939	0	33644	
940	0	33648	
941	0	33654	
942	0	33678	
943	0	33668	
944	0	33660	
945	0	33656	
946	0	33648	
947	0	33668	
948	0	33674	
949	0	33672	
950	0	33664	
951	0	33648	
952	0	33665	
953	0	33660	
954	0	33658	
955	0	33660	
956	0	33666	
957	0	33644	
958	0	33668	
959	0	33674	
960	0	33644	
961	0	33651	
962	0	33648	
963	0	33670	
964	0	33668	
965	0	33665	
966	0	33650	
967	0	33648	
968	0	33642	
969	0	33640	
970	0	33672	
971	0	33656	
972	0	33668	
973	0	33648	
974	0	33672	
975	0	33664	
976	0	33648	
977	0	33672	
978	0	33669	
979	0	33648	
980	0	33640	
981	0	33648	
982	0	33656	
983	0	33656	
984	0	33668	
985	0	33652	
986	0	33671	
987	0	33658	
988	0	33638	
989	0	33657	
990	0	33669	
991	0	33653	
992	0	33648	
993	0	33676	
994	0	33640	
995	0	33664	
996	0	33648	
997	0	33648	
998	0	33666	
999	0	33664	
1000	0	33640	
1001	0	33652	
1002	0	33674	
1003	0	33654	
1004	0	33664	
1005	0	33668	
1006	0	33658	
1007	0	33666	
1008	0	33664	
1009	0	33670	
1010	0	33642	
1011	0	33656	
1012	0	33648	
1013	0	33674	
1014	0	33657	
1015	0	33671	
1016	0	33656	
1017	0	33664	
1018	0	33650	
1019	0	33651	
1020	0	33672	
1021	0	33656	
1022	0	33664	
1023	0	33664	
1024	0	33676	
1025	0	33666	
1026	0	33656	
1027	0	33636	
1028	0	33668	
1029	0	33652	
1030	0	33664	
1031	0	33671	
1032	0	33668	
1033	0	33653	
1034	0	33644	
1035	0	33659	
1036	0	33668	
1037	0	33648	
1038	0	33652	
1039	0	33652	
1040	0	33640	
1041	0	33661	
1042	0	33664	
1043	0	33644	
1044	0	33646	
1045	0	33646	
1046	0	33650	
1047	0	33668	
1048	0	33660	
1049	0	33658	
1050	0	33642	
1051	0	33656	
1052	0	33668	
1053	0	33658	
1054	0	33676	
1055	0	33636	
1056	0	33644	
1057	0	33650	
1058	0	33632	
1059	0	33672	
1060	0	33656	
1061	0	33668	
1062	0	33664	
1063	0	33656	
1064	0	33658	
1065	0	33644	
1066	0	33660	
1067	0	33668	
1068	0	33670	
1069	0	33675	
1070	0	33644	
1071	0	33660	
1072	0	33668	
1073	0	33640	
1074	0	33658	
1075	0	33670	
1076	0	33652	
1077	0	33676	
1078	0	33672	
1079	0	33676	
1080	0	33666	
1081	0	33664	
1082	0	33660	
1083	0	33654	
1084	0	33680	
1085	0	33660	
1086	0	33656	
1087	0	33671	
1088	0	33664	
1089	0	33648	
1090	0	33650	
1091	0	33660	
1092	0	33648	
1093	0	33684	
1094	0	33680	
1095	0	33672	
1096	0	33664	
1097	0	33676	
1098	0	33668	
1099	0	33652	
1100	0	33668	
1101	0	33660	
1102	0	33664	
1103	0	33656	
1104	0	33680	
1105	0	33682	
1106	0	33644	
1107	0	33672	
1108	0	33672	
1109	0	33666	
1110	0	33664	
1111	0	33656	
1112	0	33656	
1113	0	33666	
1114	0	33640	
1115	0	33677	
1116	0	33669	
1117	0	33680	
1118	0	33664	
1119	0	33664	
1120	0	33656	
1121	0	33668	
1122	0	33678	
1123	0	33656	
1124	0	33658	
1125	0	33672	
1126	0	33664	
1127	0	33660	
1128	0	33688	
1129	0	33676	
1130	0	33664	
1131	0	33656	
1132	0	33672	
1133	0	33665	
1134	0	33682	
1135	0	33664	
1136	0	33658	
1137	0	33648	
1138	0	33690	
1139	0	33660	
1140	0	33642	
1141	0	33676	
1142	0	33671	
1143	0	33644	
1144	0	33668	
1145	0	33640	
1146	0	33664	
1147	0	33672	
1148	0	33664	
1149	0	33648	
1150	0	33670	
1151	0	33664	
1152	0	33674	
1153	0	33668	
1154	0	33680	
1155	0	33660	
1156	0	33656	
1157	0	33656	
1158	0	33640	
1159	0	33656	
1160	0	33659	
1161	0	33668	
1162	0	33664	
1163	0	33652	
1164	0	33680	
1165	0	33676	
1166	0	33668	
1167	0	33665	
1168	0	33660	
1169	0	33670	
1170	0	33654	
1171	0	33658	
1172	0	33680	
1173	0	33680	
1174	0	33681	
1175	0	33664	
1176	0	33664	
1177	0	33674	
1178	0	33668	
1179	0	33668	
1180	0	33660	
1181	0	33678	
1182	0	33686	
1183	0	33685	
1184	0	33671	
1185	0	33680	
1186	0	33660	
1187	0	33696	
1188	0	33677	
1189	0	33672	
1190	0	33658	
1191	0	33670	
1192	0	33672	
1193	0	33668	
1194	0	33668	
1195	0	33664	
1196	0	33672	
1197	0	33685	
1198	0	33660	
1199	0	33656	
1200	0	33648	
1201	0	33664	
1202	0	33664	
1203	0	33642	
1204	0	33688	
1205	0	33666	
1206	0	33664	
1207	0	33674	
1208	0	33688	
1209	0	33680	
1210	0	33668	
1211	0	33656	
1212	0	33656	
1213	0	33672	
1214	0	33658	
1215	0	33674	
1216	0	33665	
1217	0	33664	
1218	0	33664	
1219	0	33692	
1220	0	33648	
1221	0	33672	
1222	0	33684	
1223	0	33696	
1224	0	33674	
1225	0	33672	
1226	0	33657	
1227	0	33674	
1228	0	33668	
1229	0	33680	
1230	0	33662	
1231	0	33660	
1232	0	33666	
1233	0	33656	
1234	0	33672	
1235	0	33676	
1236	0	33658	
1237	0	33680	
1238	0	33654	
1239	0	33658	
1240	0	33680	
1241	0	33656	
1242	0	33648	
1243	0	33664	
1244	0	33664	
1245	0	33648	
1246	0	33680	
1247	0	33650	
1248	0	33676	
1249	0	33656	
1250	0	33648	
1251	0	33672	
1252	0	33680	
1253	0	33680	
1254	0	33649	
1255	0	33688	
1256	0	33672	
1257	0	33660	
1258	0	33696	
1259	0	33662	
1260	0	33654	
1261	0	33674	
1262	0	33677	
1263	0	33674	
1264	0	33673	
1265	0	33656	
1266	0	33696	
1267	0	33675	
1268	0	33664	
1269	0	33680	
1270	0	33664	
1271	0	33680	
1272	0	33676	
1273	0	33668	
1274	0	33650	
1275	0	33668	
1276	0	33674	
1277	0	33672	
1278	0	33672	
1279	0	33656	
1280	0	33658	
1281	0	33669	
1282	0	33665	
1283	0	33651	
1284	0	33660	
1285	0	33660	
1286	0	33664	
1287	0	33680	
1288	0	33664	
1289	0	33696	
1290	0	33680	
1291	0	33676	
1292	0	33682	
1293	0	33672	
1294	0	33680	
1295	0	33664	
1296	0	33677	
1297	0	33664	
1298	0	33668	
1299	0	33680	
1300	0	33672	
1301	0	33672	
1302	0	33672	
1303	0	33676	
1304	0	33664	
1305	0	33674	
1306	0	33664	
1307	0	33660	
1308	0	33682	
1309	0	33652	
1310	0	33666	
1311	0	33680	
1312	0	33680	
1313	0	33686	
1314	0	33680	
1315	0	33666	
1316	0	33680	
1317	0	33671	
1318	0	33664	
1319	0	33680	
1320	0	33670	
1321	0	33688	
1322	0	33680	
1323	0	33670	
1324	0	33688	
1325	0	33688	
1326	0	33690	
1327	0	33668	
1328	0	33682	
1329	0	33672	
1330	0	33661	
1331	0	33658	
1332	0	33688	
1333	0	33672	
1334	0	33688	
1335	0	33660	
1336	0	33672	
1337	0	33666	
1338	0	33689	
1339	0	33673	
1340	0	33676	
1341	0	33673	
1342	0	33660	
1343	0	33664	
1344	0	33672	
1345	0	33660	
1346	0	33656	
1347	0	33696	
1348	0	33666	
1349	0	33656	
1350	0	33676	
1351	0	33672	
1352	0	33696	
1353	0	33661	
1354	0	33668	
1355	0	33680	
1356	0	33680	
1357	0	33656	
1358	0	33696	
1359	0	33650	
1360	0	33664	
1361	0	33682	
1362	0	33664	
1363	0	33698	
1364	0	33676	
1365	0	33696	
1366	0	33672	
1367	0	33674	
1368	0	33689	
1369	0	33668	
1370	0	33664	
1371	0	33680	
1372	0	33673	
1373	0	33667	
1374	0	33664	
1375	0	33689	
1376	0	33669	
1377	0	33664	
1378	0	33676	
1379	0	33656	
1380	0	33674	
1381	0	33671	
1382	0	33690	
1383	0	33684	
1384	0	33668	
1385	0	33664	
1386	0	33673	
1387	0	33672	
1388	0	33692	
1389	0	33672	
1390	0	33668	
1391	0	33680	
1392	0	33666	
1393	0	33688	
1394	0	33671	
1395	0	33664	
1396	0	33664	
1397	0	33672	
1398	0	33660	
1399	0	33657	
1400	0	33664	
1401	0	33688	
1402	0	33684	
1403	0	33680	
1404	0	33664	
1405	0	33668	
1406	0	33697	
1407	0	33671	
1408	0	33684	
1409	0	33664	
1410	0	33692	
1411	0	33680	
1412	0	33666	
1413	0	33688	
1414	0	33674	
1415	0	33688	
1416	0	33672	
1417	0	33668	
1418	0	33697	
1419	0	33680	
1420	0	33668	
1421	0	33700	
1422	0	33665	
1423	0	33677	
1424	0	33670	
1425	0	33688	
1426	0	33674	
1427	0	33684	
1428	0	33690	
1429	0	33664	
1430	0	33688	
1431	0	33680	
1432	0	33668	
1433	0	33692	
1434	0	33696	
1435	0	33672	
1436	0	33688	
1437	0	33700	
1438	0	33664	
1439	0	33680	
1440	0	33692	
1441	0	33682	
1442	0	33682	
1443	0	33688	
1444	0	33688	
1445	0	33672	
1446	0	33659	
1447	0	33664	
1448	0	33698	
1449	0	33692	
1450	0	33664	
1451	0	33664	
1452	0	33684	
1453	0	33704	
1454	0	33696	
1455	0	33657	
1456	0	33672	
1457	0	33688	
1458	0	33688	
1459	0	33670	
1460	0	33672	
1461	0	33664	
1462	0	33676	
1463	0	33684	
1464	0	33696	
1465	0	33688	
1466	0	33682	
1467	0	33672	
1468	0	33682	
1469	0	33696	
1470	0	33690	
1471	0	33688	
1472	0	33693	
1473	0	33692	
1474	0	33676	
1475	0	33680	
1476	0	33690	
1477	0	33696	
1478	0	33664	
1479	0	33656	
1480	0	33688	
1481	0	33680	
1482	0	33688	
1483	0	33692	
1484	0	33656	
1485	0	33689	
1486	0	33673	
1487	0	33688	
1488	0	33672	
1489	0	33666	
1490	0	33686	
1491	0	33680	
1492	0	33668	
1493	0	33672	
1494	0	33682	
1495	0	33688	
1496	0	33688	
1497	0	33664	
1498	0	33688	
1499	0	33688	
1500	0	33664	
1501	0	33684	
1502	0	33694	
1503	0	33674	
1504	0	33686	
1505	0	33672	
1506	0	33680	
1507	0	33665	
1508	0	33660	
1509	0	33676	
1510	0	33691	
1511	0	33686	
1512	0	33681	
1513	0	33700	
1514	0	33700	
1515	0	33680	
1516	0	33674	
1517	0	33674	
1518	0	33690	
1519	0	33686	
1520	0	33692	
1521	0	33684	
1522	0	33672	
1523	0	33700	
1524	0	33666	
1525	0	33664	
1526	0	33676	
1527	0	33665	
1528	0	33688	
1529	0	33692	
1530	0	33688	
1531	0	33688	
1532	0	33668	
1533	0	33688	
1534	0	33664	
1535	0	33690	
1536	0	33680	
1537	0	33672	
1538	0	33682	
1539	0	33696	
1540	0	33668	
1541	0	33696	
1542	0	33684	
1543	0	33680	
1544	0	33680	
1545	0	33688	
1546	0	33674	
1547	0	33684	
1548	0	33674	
1549	0	33669	
1550	0	33664	
1551	0	33664	
1552	0	33675	
1553	0	33698	
1554	0	33680	
1555	0	33692	
1556	0	33676	
1557	0	33700	
1558	0	33672	
1559	0	33688	
1560	0	33696	
1561	0	33680	
1562	0	33668	
1563	0	33692	
1564	0	33688	
1565	0	33676	
1566	0	33692	
1567	0	33688	
1568	0	33696	
1569	0	33689	
1570	0	33676	
1571	0	33672	
1572	0	33666	
1573	0	33680	
1574	0	33696	
1575	0	33680	
1576	0	33696	
1577	0	33676	
1578	0	33676	
1579	0	33696	
1580	0	33668	
1581	0	33692	
1582	0	33684	
1583	0	33700	
1584	0	33688	
1585	0	33680	
1586	0	33704	
1587	0	33688	
1588	0	33680	
1589	0	33678	
1590	0	33680	
1591	0	33672	
1592	0	33680	
1593	0	33673	
1594	0	33674	
1595	0	33676	
1596	0	33698	
1597	0	33680	
1598	0	33672	
1599	0	33672	
1600	0	33672	
1601	0	33672	
1602	0	33686	
1603	0	33680	
1604	0	33690	
1605	0	33680	
1606	0	33688	
1607	0	33694	
1608	0	33696	
1609	0	33672	
1610	0	33664	
1611	0	33660	
1612	0	33680	
1613	0	33701	
1614	0	33666	
1615	0	33674	
1616	0	33668	
1617	0	33680	
1618	0	33680	
1619	0	33671	
1620	0	33697	
1621	0	33669	
1622	0	33680	
1623	0	33696	
1624	0	33688	
1625	0	33664	
1626	0	33696	
1627	0	33672	
1628	0	33689	
1629	0	33682	
1630	0	33664	
1631	0	33690	
1632	0	33668	
1633	0	33688	
1634	0	33668	
1635	0	33708	
1636	0	33692	
1637	0	33704	
1638	0	33656	
1639	0	33688	
1640	0	33672	
1641	0	33674	
1642	0	33680	
1643	0	33669	
1644	0	33684	
1645	0	33693	
1646	0	33696	
1647	0	33688	
1648	0	33696	
1649	0	33698	
1650	0	33688	
1651	0	33704	
1652	0	33692	
1653	0	33688	
1654	0	33698	
1655	0	33680	
1656	0	33706	
1657	0	33684	
1658	0	33670	
1659	0	33680	
1660	0	33690	
1661	0	33696	
1662	0	33688	
1663	0	33688	
1664	0	33684	
1665	0	33680	
1666	0	33680	
1667	0	33664	
1668	0	33704	
1669	0	33682	
1670	0	33708	
1671	0	33680	
1672	0	33680	
1673	0	33664	
1674	0	33688	
1675	0	33676	
1676	0	33712	
1677	0	33680	
1678	0	33675	
1679	0	33696	
1680	0	33696	
1681	0	33697	
1682	0	33692	
1683	0	33676	
1684	0	33689	
1685	0	33680	
1686	0	33682	
1687	0	33694	
1688	0	33680	
1689	0	33676	
1690	0	33668	
1691	0	33696	
1692	0	33682	
1693	0	33668	
1694	0	33680	
1695	0	33686	
1696	0	33674	
1697	0	33690	
1698	0	33688	
1699	0	33696	
1700	0	33688	
1701	0	33672	
1702	0	33684	
1703	0	33684	
1704	0	33688	
1705	0	33680	
1706	0	33680	
1707	0	33704	
1708	0	33682	
1709	0	33704	
1710	0	33670	
1711	0	33672	
1712	0	33688	
1713	0	33674	
1714	0	33700	
1715	0	33666	
1716	0	33680	
1717	0	33680	
1718	0	33696	
1719	0	33680	
1720	0	33689	
1721	0	33674	
1722	0	33696	
1723	0	33676	
1724	0	33674	
1725	0	33672	
1726	0	33684	
1727	0	33696	
1728	0	33680	
1729	0	33676	
1730	0	33684	
1731	0	33674	
1732	0	33688	
1733	0	33704	
1734	0	33672	
1735	0	33696	
1736	0	33696	
1737	0	33689	
1738	0	33693	
1739	0	33680	
1740	0	33668	
1741	0	33690	
1742	0	33704	
1743	0	33690	
1744	0	33692	
1745	0	33690	
1746	0	33672	
1747	0	33689	
1748	0	33708	
1749	0	33664	
1750	0	33700	
1751	0	33688	
1752	0	33696	
1753	0	33672	
1754	0	33684	
1755	0	33682	
1756	0	33704	
1757	0	33674	
1758	0	33704	
1759	0	33674	
1760	0	33704	
1761	0	33684	
1762	0	33694	
1763	0	33692	
1764	0	33697	
1765	0	33696	
1766	0	33682	
1767	0	33700	
1768	0	33672	
1769	0	33677	
1770	0	33688	
1771	0	33670	
1772	0	33688	
1773	0	33684	
1774	0	33672	
1775	0	33684	
1776	0	33666	
1777	0	33680	
1778	0	33670	
1779	0	33682	
1780	0	33682	
1781	0	33696	
1782	0	33690	
1783	0	33696	
1784	0	33668	
1785	0	33696	
1786	0	33708	
1787	0	33682	
1788	0	33696	
1789	0	33672	
1790	0	33693	
1791	0	33665	
1792	0	33680	
1793	0	33692	
1794	0	33696	
1795	0	33688	
1796	0	33676	
1797	0	33693	
1798	0	33700	
1799	0	33676	
1800	0	33696	
1801	0	33692	
1802	0	33693	
1803	0	33700	
1804	0	33700	
1805	0	33697	
1806	0	33668	
1807	0	33676	
1808	0	33672	
1809	0	33704	
1810	0	33686	
1811	0	33684	
1812	0	33688	
1813	0	33689	
1814	0	33714	
1815	0	33697	
1816	0	33664	
1817	0	33680	
1818	0	33672	
1819	0	33672	
1820	0	33696	
1821	0	33680	
1822	0	33696	
1823	0	33696	
1824	0	33681	
1825	0	33672	
1826	0	33697	
1827	0	33684	
1828	0	33688	
1829	0	33689	
1830	0	33720	
1831	0	33696	
1832	0	33689	
1833	0	33672	
1834	0	33672	
1835	0	33676	
1836	0	33712	
1837	0	33674	
1838	0	33692	
1839	0	33688	
1840	0	33684	
1841	0	33672	
1842	0	33697	
1843	0	33676	
1844	0	33704	
1845	0	33688	
1846	0	33690	
1847	0	33675	
1848	0	33696	
1849	0	33692	
1850	0	33672	
1851	0	33688	
1852	0	33688	
1853	0	33680	
1854	0	33693	
1855	0	33690	
1856	0	33688	
1857	0	33672	
1858	0	33704	
1859	0	33692	
1860	0	33704	
1861	0	33680	
1862	0	33685	
1863	0	33680	
1864	0	33672	
1865	0	33689	
1866	0	33706	
1867	0	33704	
1868	0	33698	
1869	0	33672	
1870	0	33696	
1871	0	33684	
1872	0	33688	
1873	0	33706	
1874	0	33680	
1875	0	33680	
1876	0	33677	
1877	0	33674	
1878	0	33672	
1879	0	33688	
1880	0	33696	
1881	0	33680	
1882	0	33684	
1883	0	33684	
1884	0	33670	
1885	0	33688	
1886	0	33672	
1887	0	33672	
1888	0	33696	
1889	0	33696	
1890	0	33688	
1891	0	33696	
1892	0	33690	
1893	0	33678	
1894	0	33712	
1895	0	33691	
1896	0	33692	
1897	0	33672	
1898	0	33680	
1899	0	33676	
1900	0	33668	
1901	0	33692	
1902	0	33696	
1903	0	33700	
1904	0	33688	
1905	0	33676	
1906	0	33696	
1907	0	33684	
1908	0	33692	
1909	0	33672	
1910	0	33680	
1911	0	33697	
1912	0	33684	
1913	0	33680	
1914	0	33696	
1915	0	33684	
1916	0	33680	
1917	0	33692	
1918	0	33692	
1919	0	33697	
1920	0	33700	
1921	0	33704	
1922	0	33688	
1923	0	33668	
1924	0	33690	
1925	0	33700	
1926	0	33704	
1927	0	33701	
1928	0	33672	
1929	0	33676	
1930	0	33676	
1931	0	33680	
1932	0	33682	
1933	0	33697	
1934	0	33696	
1935	0	33672	
1936	0	33700	
1937	0	33696	
1938	0	33692	
1939	0	33688	
1940	0	33696	
1941	0	33696	
1942	0	33698	
1943	0	33684	
1944	0	33696	
1945	0	33688	
1946	0	33704	
1947	0	33688	
1948	0	33704	
1949	0	33684	
1950	0	33691	
1951	0	33692	
1952	0	33689	
1953	0	33684	
1954	0	33676	
1955	0	33688	
1956	0	33696	
1957	0	33693	
1958	0	33704	
1959	0	33672	
1960	0	33680	
1961	0	33708	
1962	0	33698	
1963	0	33676	
1964	0	33682	
1965	0	33688	
1966	0	33680	
1967	0	33699	
1968	0	33704	
1969	0	33680	
1970	0	33716	
1971	0	33696	
1972	0	33693	
1973	0	33696	
1974	0	33706	
1975	0	33686	
1976	0	33705	
1977	0	33698	
1978	0	33680	
1979	0	33674	
1980	0	33696	
1981	0	33693	
1982	0	33697	
1983	0	33693	
1984	0	33672	
1985	0	33690	
1986	0	33688	
1987	0	33681	
1988	0	33688	
1989	0	33712	
1990	0	33688	
1991	0	33696	
1992	0	33692	
1993	0	33672	
1994	0	33689	
1995	0	33664	
1996	0	33704	
1997	0	33676	
1998	0	33700	
1999	0	33696	
2000	0	33682	
2001	0	33705	
2002	0	33690	
2003	0	33672	
2004	0	33699	
2005	0	33676	
2006	0	33688	
2007	0	33688	
2008	0	33692	
2009	0	33696	
2010	0	33681	
2011	0	33706	
2012	0	33692	
2013	0	33684	
2014	0	33693	
2015	0	33720	
2016	0	33682	
2017	0	33684	
2018	0	33704	
2019	0	33696	
2020	0	33715	
2021	0	33708	
2022	0	33688	
2023	0	33684	
2024	0	33696	
2025	0	33704	
2026	0	33704	
2027	0	33696	
2028	0	33696	
2029	0	33700	
2030	0	33696	
2031	0	33688	
2032	0	33684	
2033	0	33676	
2034	0	33704	
2035	0	33714	
2036	0	33704	
2037	0	33688	
2038	0	33696	
2039	0	33696	
2040	0	33700	
2041	0	33674	
2042	0	33696	
2043	0	33708	
2044	0	33696	
2045	0	33696	
2046	0	33700	
2047	0	33700	
2048	0	33706	
2049	0	33700	
2050	0	33696	
2051	0	33692	
2052	0	33688	
2053	0	33696	
2054	0	33696	
2055	0	33690	
2056	0	33712	
2057	0	33714	
2058	0	33700	
2059	0	33674	
2060	0	33705	
2061	0	33688	
2062	0	33696	
2063	0	33704	
2064	0	33704	
2065	0	33672	
2066	0	33688	
2067	0	33698	
2068	0	33697	
2069	0	33688	
2070	0	33674	
2071	0	33680	
2072	0	33689	
2073	0	33672	
2074	0	33704	
2075	0	33676	
2076	0	33684	
2077	0	33688	
2078	0	33678	
2079	0	33715	
2080	0	33689	
2081	0	33710	
2082	0	33688	
2083	0	33704	
2084	0	33708	
2085	0	33700	
2086	0	33706	
2087	0	33680	
2088	0	33698	
2089	0	33676	
2090	0	33716	
2091	0	33691	
2092	0	33692	
2093	0	33692	
2094	0	33704	
2095	0	33700	
2096	0	33704	
2097	0	33688	
2098	0	33704	
2099	0	33688	
2100	0	33712	
2101	0	33708	
2102	0	33688	
2103	0	33686	
2104	0	33692	
2105	0	33704	
2106	0	33672	
2107	0	33684	
2108	0	33680	
2109	0	33708	
2110	0	33701	
2111	0	33706	
2112	0	33692	
2113	0	33668	
2114	0	33684	
2115	0	33708	
2116	0	33696	
2117	0	33704	
2118	0	33697	
2119	0	33712	
2120	0	33706	
2121	0	33690	
2122	0	33684	
2123	0	33700	
2124	0	33696	
2125	0	33674	
2126	0	33684	
2127	0	33689	
2128	0	33676	
2129	0	33684	
2130	0	33674	
2131	0	33688	
2132	0	33692	
2133	0	33688	
2134	0	33676	
2135	0	33688	
2136	0	33696	
2137	0	33704	
2138	0	33708	
2139	0	33708	
2140	0	33696	
2141	0	33705	
2142	0	33688	
2143	0	33704	
2144	0	33701	
2145	0	33714	
2146	0	33684	
2147	0	33666	
2148	0	33680	
2149	0	33704	
2150	0	33682	
2151	0	33710	
2152	0	33688	
2153	0	33688	
2154	0	33700	
2155	0	33680	
2156	0	33684	
2157	0	33673	
2158	0	33693	
2159	0	33690	
2160	0	33672	
2161	0	33706	
2162	0	33696	
2163	0	33700	
2164	0	33704	
2165	0	33688	
2166	0	33692	
2167	0	33672	
2168	0	33704	
2169	0	33708	
2170	0	33712	
2171	0	33686	
2172	0	33698	
2173	0	33714	
2174	0	33688	
2175	0	33692	
2176	0	33689	
2177	0	33680	
2178	0	33700	
2179	0	33689	
2180	0	33696	
2181	0	33712	
2182	0	33680	
2183	0	33700	
2184	0	33674	
2185	0	33680	
2186	0	33704	
2187	0	33696	
2188	0	33708	
2189	0	33696	
2190	0	33684	
2191	0	33696	
2192	0	33692	
2193	0	33680	
2194	0	33704	
2195	0	33680	
2196	0	33712	
2197	0	33696	
2198	0	33708	
2199	0	33696	
2200	0	33696	
2201	0	33696	
2202	0	33693	
2203	0	33689	
2204	0	33688	
2205	0	33692	
2206	0	33684	
2207	0	33716	
2208	0	33707	
2209	0	33688	
2210	0	33705	
2211	0	33704	
2212	0	33692	
2213	0	33706	
2214	0	33689	
2215	0	33716	
2216	0	33680	
2217	0	33696	
2218	0	33688	
2219	0	33696	
2220	0	33697	
2221	0	33708	
2222	0	33676	
2223	0	33718	
2224	0	33696	
2225	0	33693	
2226	0	33705	
2227	0	33680	
2228	0	33672	
2229	0	33680	
2230	0	33704	
2231	0	33684	
2232	0	33696	
2233	0	33696	
2234	0	33692	
2235	0	33680	
2236	0	33672	
2237	0	33690	
2238	0	33680	
2239	0	33696	
2240	0	33700	
2241	0	33674	
2242	0	33698	
2243	0	33676	
2244	0	33696	
2245	0	33696	
2246	0	33688	
2247	0	33688	
2248	0	33710	
2249	0	33706	
2250	0	33684	
2251	0	33712	
2252	0	33688	
2253	0	33680	
2254	0	33682	
2255	0	33664	
2256	0	33701	
2257	0	33689	
2258	0	33688	
2259	0	33689	
2260	0	33688	
2261	0	33704	
2262	0	33700	
2263	0	33692	
2264	0	33692	
2265	0	33684	
2266	0	33686	
2267	0	33697	
2268	0	33700	
2269	0	33708	
2270	0	33688	
2271	0	33676	
2272	0	33697	
2273	0	33701	
2274	0	33694	
2275	0	33684	
2276	0	33704	
2277	0	33674	
2278	0	33689	
2279	0	33706	
2280	0	33704	
2281	0	33688	
2282	0	33689	
2283	0	33688	
2284	0	33714	
2285	0	33684	
2286	0	33706	
2287	0	33704	
2288	0	33700	
2289	0	33688	
2290	0	33704	
2291	0	33699	
2292	0	33704	
2293	0	33692	
2294	0	33698	
2295	0	33704	
2296	0	33684	
2297	0	33721	
2298	0	33710	
2299	0	33704	
2300	0	33700	
2301	0	33683	
2302	0	33704	
2303	0	33712	
2304	0	33705	
2305	0	33700	
2306	0	33680	
2307	0	33676	
2308	0	33688	
2309	0	33676	
2310	0	33712	
2311	0	33688	
2312	0	33706	
2313	0	33708	
2314	0	33688	
2315	0	33680	
2316	0	33704	
2317	0	33700	
2318	0	33716	
2319	0	33696	
2320	0	33706	
2321	0	33680	
2322	0	33685	
2323	0	33688	
2324	0	33680	
2325	0	33696	
2326	0	33700	
2327	0	33690	
2328	0	33701	
2329	0	33688	
2330	0	33720	
2331	0	33686	
2332	0	33692	
2333	0	33704	
2334	0	33698	
2335	0	33688	
2336	0	33704	
2337	0	33704	
2338	0	33700	
2339	0	33720	
2340	0	33714	
2341	0	33688	
2342	0	33692	
2343	0	33696	
2344	0	33674	
2345	0	33681	
2346	0	33692	
2347	0	33696	
2348	0	33688	
2349	0	33700	
2350	0	33684	
2351	0	33680	
2352	0	33692	
2353	0	33688	
2354	0	33706	
2355	0	33688	
2356	0	33696	
2357	0	33700	
2358	0	33718	
2359	0	33696	
2360	0	33705	
2361	0	33708	
2362	0	33696	
2363	0	33700	
2364	0	33691	
2365	0	33672	
2366	0	33708	
2367	0	33696	
2368	0	33696	
2369	0	33706	
2370	0	33688	
2371	0	33688	
2372	0	33688	
2373	0	33700	
2374	0	33688	
2375	0	33690	
2376	0	33708	
2377	0	33712	
2378	0	33692	
2379	0	33696	
2380	0	33712	
2381	0	33696	
2382	0	33690	
2383	0	33696	
2384	0	33708	
2385	0	33696	
2386	0	33676	
2387	0	33692	
2388	0	33692	
2389	0	33692	
2390	0	33688	
2391	0	33707	
2392	0	33676	
2393	0	33680	
2394	0	33701	
2395	0	33688	
2396	0	33700	
2397	0	33684	
2398	0	33690	
2399	0	33706	
2400	0	33712	
2401	0	33692	
2402	0	33688	
2403	0	33710	
2404	0	33692	
2405	0	33698	
2406	0	33692	
2407	0	33700	
2408	0	33704	
2409	0	33696	
2410	0	33686	
2411	0	33697	
2412	0	33698	
2413	0	33688	
2414	0	33704	
2415	0	33696	
2416	0	33696	
2417	0	33694	
2418	0	33684	
2419	0	33712	
2420	0	33710	
2421	0	33691	
2422	0	33696	
2423	0	33708	
2424	0	33700	
2425	0	33704	
2426	0	33676	
2427	0	33704	
2428	0	33708	
2429	0	33696	
2430	0	33692	
2431	0	33672	
2432	0	33708	
2433	0	33682	
2434	0	33696	
2435	0	33708	
2436	0	33686	
2437	0	33697	
2438	0	33704	
2439	0	33688	
2440	0	33704	
2441	0	33708	
2442	0	33701	
2443	0	33706	
2444	0	33688	
2445	0	33693	
2446	0	33689	
2447	0	33701	
2448	0	33676	
2449	0	33684	
2450	0	33714	
2451	0	33696	
2452	0	33684	
2453	0	33704	
2454	0	33708	
2455	0	33688	
2456	0	33704	
2457	0	33688	
2458	0	33712	
2459	0	33700	
2460	0	33712	
2461	0	33689	
2462	0	33712	
2463	0	33689	
2464	0	33680	
2465	0	33696	
2466	0	33708	
2467	0	33713	
2468	0	33706	
2469	0	33708	
2470	0	33690	
2471	0	33688	
2472	0	33688	
2473	0	33696	
2474	0	33700	
2475	0	33688	
2476	0	33684	
2477	0	33674	
2478	0	33689	
2479	0	33684	
2480	0	33692	
2481	0	33692	
2482	0	33684	
2483	0	33689	
2484	0	33680	
2485	0	33707	
2486	0	33705	
2487	0	33674	
2488	0	33696	
2489	0	33693	
2490	0	33680	
2491	0	33692	
2492	0	33704	
2493	0	33688	
2494	0	33680	
2495	0	33672	
2496	0	33690	
2497	0	33700	
2498	0	33684	
2499	0	33694	
2500	0	33700	
2501	0	33692	
2502	0	33706	
2503	0	33688	
2504	0	33706	
2505	0	33684	
2506	0	33712	
2507	0	33704	
2508	0	33712	
2509	0	33706	
2510	0	33689	
2511	0	33708	
2512	0	33688	
2513	0	33700	
2514	0	33704	
2515	0	33688	
2516	0	33690	
2517	0	33680	
2518	0	33688	
2519	0	33704	
2520	0	33707	
2521	0	33688	
2522	0	33704	
2523	0	33696	
2524	0	33710	
2525	0	33688	
2526	0	33681	
2527	0	33688	
2528	0	33704	
2529	0	33696	
2530	0	33686	
2531	0	33712	
2532	0	33698	
2533	0	33696	
2534	0	33690	
2535	0	33684	
2536	0	33696	
2537	0	33680	
2538	0	33696	
2539	0	33696	
2540	0	33672	
2541	0	33681	
2542	0	33690	
2543	0	33692	
2544	0	33684	
2545	0	33684	
2546	0	33706	
2547	0	33693	
2548	0	33688	
2549	0	33696	
2550	0	33697	
2551	0	33705	
2552	0	33692	
2553	0	33708	
2554	0	33692	
2555	0	33692	
2556	0	33678	
2557	0	33700	
2558	0	33712	
2559	0	33672	
2560	0	33690	
2561	0	33680	
2562	0	33688	
2563	0	33704	
2564	0	33712	
2565	0	33696	
2566	0	33688	
2567	0	33700	
2568	0	33696	
2569	0	33686	
2570	0	33706	
2571	0	33676	
2572	0	33714	
2573	0	33700	
2574	0	33680	
2575	0	33691	
2576	0	33676	
2577	0	33714	
2578	0	33696	
2579	0	33703	
2580	0	33712	
2581	0	33680	
2582	0	33692	
2583	0	33690	
2584	0	33696	
2585	0	33684	
2586	0	33704	
2587	0	33676	
2588	0	33680	
2589	0	33698	
2590	0	33688	
2591	0	33712	
2592	0	33688	
2593	0	33700	
2594	0	33704	
2595	0	33692	
2596	0	33680	
2597	0	33700	
2598	0	33697	
2599	0	33676	
2600	0	33696	
2601	0	33704	
2602	0	33704	
2603	0	33697	
2604	0	33704	
2605	0	33693	
2606	0	33680	
2607	0	33683	
2608	0	33682	
2609	0	33707	
2610	0	33718	
2611	0	33705	
2612	0	33696	
2613	0	33700	
2614	0	33684	
2615	0	33688	
2616	0	33680	
2617	0	33682	
2618	0	33672	
2619	0	33696	
2620	0	33712	
2621	0	33712	
2622	0	33696	
2623	0	33697	
2624	0	33673	
2625	0	33688	
2626	0	33720	
2627	0	33672	
2628	0	33706	
2629	0	33680	
2630	0	33712	
2631	0	33684	
2632	0	33708	
2633	0	33676	
2634	0	33712	
2635	0	33704	
2636	0	33674	
2637	0	33705	
2638	0	33696	
2639	0	33713	
2640	0	33696	
2641	0	33698	
2642	0	33700	
2643	0	33696	
2644	0	33684	
2645	0	33705	
2646	0	33704	
2647	0	33700	
2648	0	33712	
2649	0	33704	
2650	0	33712	
2651	0	33696	
2652	0	33690	
2653	0	33692	
2654	0	33692	
2655	0	33704	
2656	0	33696	
2657	0	33692	
2658	0	33696	
2659	0	33690	
2660	0	33692	
2661	0	33682	
2662	0	33700	
2663	0	33696	
2664	0	33713	
2665	0	33706	
2666	0	33684	
2667	0	33697	
2668	0	33696	
2669	0	33712	
2670	0	33704	
2671	0	33692	
2672	0	33696	
2673	0	33700	
2674	0	33712	
2675	0	33676	
2676	0	33700	
2677	0	33698	
2678	0	33698	
2679	0	33712	
2680	0	33707	
2681	0	33720	
2682	0	33696	
2683	0	33699	
2684	0	33707	
2685	0	33716	
2686	0	33688	
2687	0	33688	
2688	0	33696	
2689	0	33682	
2690	0	33676	
2691	0	33676	
2692	0	33692	
2693	0	33688	
2694	0	33688	
2695	0	33696	
2696	0	33680	
2697	0	33696	
2698	0	33708	
2699	0	33696	
2700	0	33704	
2701	0	33704	
2702	0	33706	
2703	0	33696	
2704	0	33701	
2705	0	33708	
2706	0	33712	
2707	0	33688	
2708	0	33708	
2709	0	33712	
2710	0	33700	
2711	0	33684	
2712	0	33708	
2713	0	33696	
2714	0	33677	
2715	0	33716	
2716	0	33700	
2717	0	33700	
2718	0	33684	
2719	0	33697	
2720	0	33700	
2721	0	33697	
2722	0	33704	
2723	0	33693	
2724	0	33716	
2725	0	33694	
2726	0	33696	
2727	0	33708	
2728	0	33697	
2729	0	33704	
2730	0	33692	
2731	0	33696	
2732	0	33697	
2733	0	33707	
2734	0	33697	
2735	0	33688	
2736	0	33688	
2737	0	33704	
2738	0	33705	
2739	0	33704	
2740	0	33700	
2741	0	33708	
2742	0	33704	
2743	0	33696	
2744	0	33688	
2745	0	33722	
2746	0	33696	
2747	0	33708	
2748	0	33712	
2749	0	33696	
2750	0	33704	
2751	0	33704	
2752	0	33684	
2753	0	33688	
2754	0	33704	
2755	0	33704	
2756	0	33682	
2757	0	33706	
2758	0	33720	
2759	0	33704	
2760	0	33700	
2761	0	33684	
2762	0	33698	
2763	0	33706	
2764	0	33696	
2765	0	33690	
2766	0	33724	
2767	0	33705	
2768	0	33690	
2769	0	33698	
2770	0	33689	
2771	0	33720	
2772	0	33708	
2773	0	33704	
2774	0	33714	
2775	0	33684	
2776	0	33696	
2777	0	33696	
2778	0	33712	
2779	0	33688	
2780	0	33714	
2781	0	33688	
2782	0	33706	
2783	0	33696	
2784	0	33700	
2785	0	33692	
2786	0	33696	
2787	0	33720	
2788	0	33682	
2789	0	33692	
2790	0	33712	
2791	0	33706	
2792	0	33696	
2793	0	33712	
2794	0	33696	
2795	0	33692	
2796	0	33704	
2797	0	33708	
2798	0	33724	
2799	0	33672	
2800	0	33714	
2801	0	33704	
2802	0	33700	
2803	0	33698	
2804	0	33690	
2805	0	33674	
2806	0	33692	
2807	0	33688	
2808	0	33704	
2809	0	33704	
2810	0	33676	
2811	0	33688	
2812	0	33704	
2813	0	33704	
2814	0	33714	
2815	0	33712	
2816	0	33692	
2817	0	33700	
2818	0	33704	
2819	0	33704	
2820	0	33688	
2821	0	33706	
2822	0	33689	
2823	0	33708	
2824	0	33688	
2825	0	33688	
2826	0	33684	
2827	0	33696	
2828	0	33712	
2829	0	33720	
2830	0	33697	
2831	0	33720	
2832	0	33706	
2833	0	33704	
2834	0	33718	
2835	0	33706	
2836	0	33688	
2837	0	33708	
2838	0	33708	
2839	0	33720	
2840	0	33704	
2841	0	33696	
2842	0	33724	
2843	0	33712	
2844	0	33676	
2845	0	33692	
2846	0	33696	
2847	0	33704	
2848	0	33685	
2849	0	33708	
2850	0	33706	
2851	0	33688	
2852	0	33692	
2853	0	33696	
2854	0	33712	
2855	0	33704	
2856	0	33714	
2857	0	33704	
2858	0	33714	
2859	0	33704	
2860	0	33696	
2861	0	33688	
2862	0	33704	
2863	0	33708	
2864	0	33700	
2865	0	33712	
2866	0	33696	
2867	0	33684	
2868	0	33720	
2869	0	33712	
2870	0	33716	
2871	0	33692	
2872	0	33690	
2873	0	33704	
2874	0	33704	
2875	0	33696	
2876	0	33684	
2877	0	33688	
2878	0	33720	
2879	0	33696	
2880	0	33728	
2881	0	33704	
2882	0	33712	
2883	0	33700	
2884	0	33684	
2885	0	33698	
2886	0	33722	
2887	0	33712	
2888	0	33704	
2889	0	33720	
2890	0	33694	
2891	0	33680	
2892	0	33692	
2893	0	33700	
2894	0	33684	
2895	0	33710	
2896	0	33693	
2897	0	33712	
2898	0	33716	
2899	0	33696	
2900	0	33714	
2901	0	33696	
2902	0	33718	
2903	0	33696	
2904	0	33684	
2905	0	33700	
2906	0	33696	
2907	0	33706	
2908	0	33696	
2909	0	33684	
2910	0	33720	
2911	0	33688	
2912	0	33696	
2913	0	33698	
2914	0	33707	
2915	0	33700	
2916	0	33680	
2917	0	33680	
2918	0	33712	
2919	0	33708	
2920	0	33684	
2921	0	33706	
2922	0	33697	
2923	0	33700	
2924	0	33688	
2925	0	33701	
2926	0	33680	
2927	0	33712	
2928	0	33688	
2929	0	33704	
2930	0	33684	
2931	0	33684	
2932	0	33700	
2933	0	33700	
2934	0	33682	
2935	0	33696	
2936	0	33720	
2937	0	33712	
2938	0	33717	
2939	0	33706	
2940	0	33704	
2941	0	33704	
2942	0	33696	
2943	0	33704	
2944	0	33708	
2945	0	33724	
2946	0	33722	
2947	0	33712	
2948	0	33680	
2949	0	33684	
2950	0	33696	
2951	0	33696	
2952	0	33712	
2953	0	33707	
2954	0	33728	
2955	0	33698	
2956	0	33705	
2957	0	33714	
2958	0	33720	
2959	0	33708	
2960	0	33688	
2961	0	33692	
2962	0	33696	
2963	0	33705	
2964	0	33706	
2965	0	33720	
2966	0	33692	
2967	0	33697	
2968	0	33684	
2969	0	33704	
2970	0	33684	
2971	0	33698	
2972	0	33696	
2973	0	33704	
2974	0	33706	
2975	0	33700	
2976	0	33730	
2977	0	33718	
2978	0	33714	
2979	0	33712	
2980	0	33722	
2981	0	33700	
2982	0	33700	
2983	0	33696	
2984	0	33704	
2985	0	33704	
2986	0	33706	
2987	0	33697	
2988	0	33720	
2989	0	33712	
2990	0	33697	
2991	0	33700	
2992	0	33706	
2993	0	33696	
2994	0	33710	
2995	0	33722	
2996	0	33720	
2997	0	33698	
2998	0	33688	
2999	0	33704	
3000	0	33682	
3001	0	33720	
3002	0	33706	
3003	0	33700	
3004	0	33708	
3005	0	33720	
3006	0	33716	
3007	0	33701	
3008	0	33724	
3009	0	33712	
3010	0	33700	
3011	0	33696	
3012	0	33708	
3013	0	33699	
3014	0	33696	
3015	0	33688	
3016	0	33708	
3017	0	33708	
3018	0	33696	
3019	0	33714	
3020	0	33692	
3021	0	33712	
3022	0	33712	
3023	0	33704	
3024	0	33712	
3025	0	33720	
3026	0	33708	
3027	0	33688	
3028	0	33712	
3029	0	33704	
3030	0	33720	
3031	0	33708	
3032	0	33704	
3033	0	33704	
3034	0	33712	
3035	0	33689	
3036	0	33714	
3037	0	33714	
3038	0	33694	
3039	0	33724	
3040	0	33720	
3041	0	33706	
3042	0	33688	
3043	0	33706	
3044	0	33704	
3045	0	33716	
3046	0	33716	
3047	0	33690	
3048	0	33688	
3049	0	33712	
3050	0	33700	
3051	0	33692	
3052	0	33712	
3053	0	33701	
3054	0	33714	
3055	0	33704	
3056	0	33708	
3057	0	33704	
3058	0	33704	
3059	0	33684	
3060	0	33716	
3061	0	33700	
3062	0	33706	
3063	0	33696	
3064	0	33680	
3065	0	33720	
3066	0	33713	
3067	0	33705	
3068	0	33708	
3069	0	33692	
3070	0	33696	
3071	0	33696	
3072	0	33706	
3073	0	33698	
3074	0	33698	
3075	0	33712	
3076	0	33710	
3077	0	33700	
3078	0	33720	
3079	0	33724	
3080	0	33712	
3081	0	33708	
3082	0	33716	
3083	0	33696	
3084	0	33712	
3085	0	33693	
3086	0	33730	
3087	0	33704	
3088	0	33706	
3089	0	33720	
3090	0	33716	
3091	0	33728	
3092	0	33722	
3093	0	33696	
3094	0	33700	
3095	0	33704	
3096	0	33720	
3097	0	33688	
3098	0	33688	
3099	0	33708	
3100	0	33708	
3101	0	33714	
3102	0	33704	
3103	0	33704	
3104	0	33704	
3105	0	33688	
3106	0	33712	
3107	0	33720	
3108	0	33696	
3109	0	33688	
3110	0	33692	
3111	0	33720	
3112	0	33697	
3113	0	33708	
3114	0	33696	
3115	0	33696	
3116	0	33712	
3117	0	33706	
3118	0	33714	
3119	0	33714	
3120	0	33690	
3121	0	33708	
3122	0	33708	
3123	0	33699	
3124	0	33725	
3125	0	33704	
3126	0	33721	
3127	0	33696	
3128	0	33698	
3129	0	33680	
3130	0	33692	
3131	0	33700	
3132	0	33712	
3133	0	33708	
3134	0	33728	
3135	0	33704	
3136	0	33696	
3137	0	33692	
3138	0	33696	
3139	0	33720	
3140	0	33692	
3141	0	33692	
3142	0	33692	
3143	0	33712	
3144	0	33688	
3145	0	33716	
3146	0	33704	
3147	0	33696	
3148	0	33696	
3149	0	33706	
3150	0	33704	
3151	0	33704	
3152	0	33732	
3153	0	33708	
3154	0	33721	
3155	0	33696	
3156	0	33700	
3157	0	33720	
3158	0	33696	
3159	0	33714	
3160	0	33682	
3161	0	33700	
3162	0	33720	
3163	0	33696	
3164	0	33720	
3165	0	33692	
3166	0	33722	
3167	0	33716	
3168	0	33692	
3169	0	33706	
3170	0	33720	
3171	0	33712	
3172	0	33716	
3173	0	33706	
3174	0	33692	
3175	0	33692	
3176	0	33696	
3177	0	33728	
3178	0	33684	
3179	0	33704	
3180	0	33696	
3181	0	33714	
3182	0	33700	
3183	0	33720	
3184	0	33704	
3185	0	33680	
3186	0	33700	
3187	0	33692	
3188	0	33693	
3189	0	33712	
3190	0	33704	
3191	0	33696	
3192	0	33706	
3193	0	33712	
3194	0	33698	
3195	0	33696	
3196	0	33680	
3197	0	33689	
3198	0	33700	
3199	0	33698	
3200	0	33700	
3201	0	33714	
3202	0	33722	
3203	0	33712	
3204	0	33716	
3205	0	33696	
3206	0	33696	
3207	0	33704	
3208	0	33699	
3209	0	33700	
3210	0	33720	
3211	0	33704	
3212	0	33696	
3213	0	33698	
3214	0	33706	
3215	0	33692	
3216	0	33720	
3217	0	33720	
3218	0	33692	
3219	0	33708	
3220	0	33712	
3221	0	33714	
3222	0	33698	
3223	0	33697	
3224	0	33707	
3225	0	33721	
3226	0	33716	
3227	0	33712	
3228	0	33700	
3229	0	33714	
3230	0	33688	
3231	0	33698	
3232	0	33700	
3233	0	33704	
3234	0	33697	
3235	0	33700	
3236	0	33697	
3237	0	33696	
3238	0	33720	
3239	0	33720	
3240	0	33704	
3241	0	33715	
3242	0	33698	
3243	0	33704	
3244	0	33706	
3245	0	33697	
3246	0	33708	
3247	0	33704	
3248	0	33704	
3249	0	33712	
3250	0	33712	
3251	0	33720	
3252	0	33712	
3253	0	33714	
3254	0	33712	
3255	0	33704	
3256	0	33700	
3257	0	33716	
3258	0	33700	
3259	0	33696	
3260	0	33693	
3261	0	33728	
3262	0	33712	
3263	0	33708	
3264	0	33697	
3265	0	33693	
3266	0	33704	
3267	0	33704	
3268	0	33700	
3269	0	33704	
3270	0	33706	
3271	0	33696	
3272	0	33706	
3273	0	33704	
3274	0	33712	
3275	0	33688	
3276	0	33689	
3277	0	33712	
3278	0	33712	
3279	0	33706	
3280	0	33700	
3281	0	33697	
3282	0	33712	
3283	0	33716	
3284	0	33701	
3285	0	33716	
3286	0	33701	
3287	0	33700	
3288	0	33704	
3289	0	33693	
3290	0	33712	
3291	0	33732	
3292	0	33720	
3293	0	33700	
3294	0	33728	
3295	0	33716	
3296	0	33720	
3297	0	33696	
3298	0	33712	
3299	0	33700	
3300	0	33696	
3301	0	33696	
3302	0	33700	
3303	0	33714	
3304	0	33696	
3305	0	33696	
3306	0	33718	
3307	0	33700	
3308	0	33696	
3309	0	33708	
3310	0	33704	
3311	0	33712	
3312	0	33708	
3313	0	33708	
3314	0	33732	
3315	0	33696	
3316	0	33704	
3317	0	33712	
3318	0	33698	
3319	0	33697	
3320	0	33712	
3321	0	33696	
3322	0	33716	
3323	0	33704	
3324	0	33714	
3325	0	33698	
3326	0	33708	
3327	0	33714	
3328	0	33704	
3329	0	33712	
3330	0	33696	
3331	0	33714	
3332	0	33682	
3333	0	33708	
3334	0	33704	
3335	0	33714	
3336	0	33704	
3337	0	33692	
3338	0	33720	
3339	0	33712	
3340	0	33714	
3341	0	33718	
3342	0	33716	
3343	0	33696	
3344	0	33712	
3345	0	33704	
3346	0	33720	
3347	0	33722	
3348	0	33708	
3349	0	33697	
3350	0	33684	
3351	0	33712	
3352	0	33712	
3353	0	33700	
3354	0	33706	
3355	0	33688	
3356	0	33708	
3357	0	33696	
3358	0	33680	
3359	0	33712	
3360	0	33692	
3361	0	33712	
3362	0	33696	
3363	0	33700	
3364	0	33712	
3365	0	33704	
3366	0	33701	
3367	0	33712	
3368	0	33716	
3369	0	33724	
3370	0	33720	
3371	0	33712	
3372	0	33714	
3373	0	33704	
3374	0	33720	
3375	0	33708	
3376	0	33706	
3377	0	33706	
3378	0	33707	
3379	0	33712	
3380	0	33690	
3381	0	33728	
3382	0	33690	
3383	0	33698	
3384	0	33720	
3385	0	33704	
3386	0	33698	
3387	0	33720	
3388	0	33712	
3389	0	33714	
3390	0	33710	
3391	0	33720	
3392	0	33708	
3393	0	33696	
3394	0	33700	
3395	0	33730	
3396	0	33704	
3397	0	33720	
3398	0	33690	
3399	0	33708	
3400	0	33704	
3401	0	33708	
3402	0	33700	
3403	0	33714	
3404	0	33712	
3405	0	33688	
3406	0	33692	
3407	0	33704	
3408	0	33696	
3409	0	33706	
3410	0	33692	
3411	0	33715	
3412	0	33714	
3413	0	33696	
3414	0	33700	
3415	0	33714	
3416	0	33696	
3417	0	33696	
3418	0	33704	
3419	0	33704	
3420	0	33724	
3421	0	33696	
3422	0	33714	
3423	0	33700	
3424	0	33697	
3425	0	33696	
3426	0	33720	
3427	0	33720	
3428	0	33700	
3429	0	33692	
3430	0	33706	
3431	0	33686	
3432	0	33696	
3433	0	33696	
3434	0	33712	
3435	0	33701	
3436	0	33714	
3437	0	33715	
3438	0	33706	
3439	0	33720	
3440	0	33696	
3441	0	33720	
3442	0	33684	
3443	0	33700	
3444	0	33700	
3445	0	33720	
3446	0	33734	
3447	0	33728	
3448	0	33704	
3449	0	33714	
3450	0	33700	
3451	0	33724	
3452	0	33696	
3453	0	33716	
3454	0	33714	
3455	0	33714	
3456	0	33716	
3457	0	33697	
3458	0	33720	
3459	0	33692	
3460	0	33700	
3461	0	33718	
3462	0	33714	
3463	0	33716	
3464	0	33700	
3465	0	33712	
3466	0	33700	
3467	0	33700	
3468	0	33688	
3469	0	33709	
3470	0	33720	
3471	0	33720	
3472	0	33696	
3473	0	33704	
3474	0	33708	
3475	0	33716	
3476	0	33722	
3477	0	33712	
3478	0	33720	
3479	0	33714	
3480	0	33704	
3481	0	33723	
3482	0	33696	
3483	0	33696	
3484	0	33720	
3485	0	33720	
3486	0	33696	
3487	0	33712	
3488	0	33722	
3489	0	33680	
3490	0	33700	
3491	0	33700	
3492	0	33674	
3493	0	33713	
3494	0	33701	
3495	0	33706	
3496	0	33696	
3497	0	33698	
3498	0	33692	
3499	0	33728	
3500	0	33720	
3501	0	33696	
3502	0	33680	
3503	0	33718	
3504	0	33704	
3505	0	33712	
3506	0	33696	
3507	0	33724	
3508	0	33696	
3509	0	33704	
3510	0	33720	
3511	0	33700	
3512	0	33720	
3513	0	33700	
3514	0	33697	
3515	0	33720	
3516	0	33696	
3517	0	33724	
3518	0	33709	
3519	0	33704	
3520	0	33680	
3521	0	33724	
3522	0	33716	
3523	0	33720	
3524	0	33716	
3525	0	33692	
3526	0	33722	
3527	0	33688	
3528	0	33724	
3529	0	33696	
3530	0	33704	
3531	0	33712	
3532	0	33708	
3533	0	33712	
3534	0	33716	
3535	0	33704	
3536	0	33696	
3537	0	33714	
3538	0	33716	
3539	0	33724	
3540	0	33701	
3541	0	33692	
3542	0	33724	
3543	0	33712	
3544	0	33696	
3545	0	33688	
3546	0	33714	
3547	0	33720	
3548	0	33698	
3549	0	33696	
3550	0	33708	
3551	0	33690	
3552	0	33712	
3553	0	33712	
3554	0	33696	
3555	0	33696	
3556	0	33712	
3557	0	33700	
3558	0	33700	
3559	0	33722	
3560	0	33723	
3561	0	33712	
3562	0	33722	
3563	0	33700	
3564	0	33700	
3565	0	33692	
3566	0	33712	
3567	0	33723	
3568	0	33704	
3569	0	33708	
3570	0	33720	
3571	0	33714	
3572	0	33712	
3573	0	33696	
3574	0	33698	
3575	0	33704	
3576	0	33712	
3577	0	33688	
3578	0	33688	
3579	0	33704	
3580	0	33712	
3581	0	33696	
3582	0	33696	
3583	0	33704	
3584	0	33720	
3585	0	33704	
3586	0	33697	
3587	0	33712	
3588	0	33684	
3589	0	33716	
3590	0	33712	
3591	0	33696	
3592	0	33724	
3593	0	33712	
3594	0	33698	
3595	0	33712	
3596	0	33720	
3597	0	33696	
3598	0	33690	
3599	0	33712	
3600	0	33690	
3601	0	33688	
3602	0	33688	
3603	0	33692	
3604	0	33688	
3605	0	33716	
3606	0	33712	
3607	0	33700	
3608	0	33688	
3609	0	33708	
3610	0	33706	
3611	0	33712	
3612	0	33712	
3613	0	33697	
3614	0	33696	
3615	0	33714	
3616	0	33708	
3617	0	33720	
3618	0	33714	
3619	0	33720	
3620	0	33690	
3621	0	33699	
3622	0	33680	
3623	0	33716	
3624	0	33714	
3625	0	33720	
3626	0	33704	
3627	0	33693	
3628	0	33696	
3629	0	33689	
3630	0	33698	
3631	0	33696	
3632	0	33712	
3633	0	33714	
3634	0	33696	
3635	0	33697	
3636	0	33700	
3637	0	33690	
3638	0	33707	
3639	0	33704	
3640	0	33712	
3641	0	33712	
3642	0	33709	
3643	0	33716	
3644	0	33696	
3645	0	33688	
3646	0	33704	
3647	0	33688	
3648	0	33704	
3649	0	33693	
3650	0	33720	
3651	0	33712	
3652	0	33702	
3653	0	33696	
3654	0	33704	
3655	0	33696	
3656	0	33712	
3657	0	33720	
3658	0	33720	
3659	0	33706	
3660	0	33692	
3661	0	33706	
3662	0	33684	
3663	0	33708	
3664	0	33720	
3665	0	33714	
3666	0	33708	
3667	0	33710	
3668	0	33716	
3669	0	33708	
3670	0	33710	
3671	0	33712	
3672	0	33704	
3673	0	33722	
3674	0	33708	
3675	0	33714	
3676	0	33712	
3677	0	33724	
3678	0	33716	
3679	0	33708	
3680	0	33700	
3681	0	33716	
3682	0	33698	
3683	0	33700	
3684	0	33696	
3685	0	33701	
3686	0	33692	
3687	0	33712	
3688	0	33720	
3689	0	33716	
3690	0	33704	
3691	0	33705	
3692	0	33712	
3693	0	33696	
3694	0	33720	
3695	0	33712	
3696	0	33716	
3697	0	33697	
3698	0	33720	
3699	0	33704	
3700	0	33712	
3701	0	33728	
3702	0	33712	
3703	0	33705	
3704	0	33692	
3705	0	33706	
3706	0	33720	
3707	0	33692	
3708	0	33688	
3709	0	33700	
3710	0	33698	
3711	0	33690	
3712	0	33700	
3713	0	33714	
3714	0	33714	
3715	0	33716	
3716	0	33722	
3717	0	33705	
3718	0	33697	
3719	0	33716	
3720	0	33712	
3721	0	33730	
3722	0	33728	
3723	0	33712	
3724	0	33708	
3725	0	33706	
3726	0	33728	
3727	0	33724	
3728	0	33730	
3729	0	33705	
3730	0	33704	
3731	0	33720	
3732	0	33689	
3733	0	33696	
3734	0	33720	
3735	0	33707	
3736	0	33714	
3737	0	33692	
3738	0	33712	
3739	0	33682	
3740	0	33696	
3741	0	33714	
3742	0	33691	
3743	0	33688	
3744	0	33704	
3745	0	33688	
3746	0	33692	
3747	0	33712	
3748	0	33690	
3749	0	33692	
3750	0	33696	
3751	0	33704	
3752	0	33714	
3753	0	33697	
3754	0	33712	
3755	0	33693	
3756	0	33720	
3757	0	33712	
3758	0	33701	
3759	0	33692	
3760	0	33704	
3761	0	33706	
3762	0	33674	
3763	0	33720	
3764	0	33714	
3765	0	33712	
3766	0	33730	
3767	0	33732	
3768	0	33700	
3769	0	33708	
3770	0	33714	
3771	0	33712	
3772	0	33704	
3773	0	33696	
3774	0	33704	
3775	0	33716	
3776	0	33712	
3777	0	33716	
3778	0	33728	
3779	0	33728	
3780	0	33712	
3781	0	33714	
3782	0	33709	
3783	0	33724	
3784	0	33696	
3785	0	33722	
3786	0	33720	
3787	0	33692	
3788	0	33704	
3789	0	33720	
3790	0	33708	
3791	0	33712	
3792	0	33696	
3793	0	33712	
3794	0	33704	
3795	0	33720	
3796	0	33714	
3797	0	33680	
3798	0	33712	
3799	0	33714	
3800	0	33724	
3801	0	33712	
3802	0	33718	
3803	0	33700	
3804	0	33704	
3805	0	33724	
3806	0	33689	
3807	0	33714	
3808	0	33704	
3809	0	33704	
3810	0	33696	
3811	0	33700	
3812	0	33716	
3813	0	33705	
3814	0	33714	
3815	0	33700	
3816	0	33724	
3817	0	33728	
3818	0	33714	
3819	0	33697	
3820	0	33721	
3821	0	33706	
3822	0	33705	
3823	0	33728	
3824	0	33700	
3825	0	33716	
3826	0	33724	
3827	0	33684	
3828	0	33708	
3829	0	33714	
3830	0	33700	
3831	0	33720	
3832	0	33704	
3833	0	33728	
3834	0	33700	
3835	0	33716	
3836	0	33720	
3837	0	33704	
3838	0	33714	
3839	0	33714	
3840	0	33688	
3841	0	33720	
3842	0	33720	
3843	0	33720	
3844	0	33712	
3845	0	33706	
3846	0	33708	
3847	0	33692	
3848	0	33708	
3849	0	33714	
3850	0	33696	
3851	0	33706	
3852	0	33696	
3853	0	33700	
3854	0	33709	
3855	0	33708	
3856	0	33724	
3857	0	33705	
3858	0	33704	
3859	0	33706	
3860	0	33696	
3861	0	33700	
3862	0	33712	
3863	0	33688	
3864	0	33718	
3865	0	33720	
3866	0	33696	
3867	0	33720	
3868	0	33720	
3869	0	33696	
3870	0	33696	
3871	0	33697	
3872	0	33697	
3873	0	33700	
3874	0	33697	
3875	0	33696	
3876	0	33704	
3877	0	33688	
3878	0	33689	
3879	0	33698	
3880	0	33714	
3881	0	33712	
3882	0	33684	
3883	0	33700	
3884	0	33708	
3885	0	33712	
3886	0	33730	
3887	0	33712	
3888	0	33720	
3889	0	33696	
3890	0	33685	
3891	0	33688	
3892	0	33718	
3893	0	33688	
3894	0	33704	
3895	0	33716	
3896	0	33714	
3897	0	33718	
3898	0	33728	
3899	0	33712	
3900	0	33720	
3901	0	33688	
3902	0	33722	
3903	0	33690	
3904	0	33706	
3905	0	33690	
3906	0	33701	
3907	0	33714	
3908	0	33696	
3909	0	33716	
3910	0	33714	
3911	0	33728	
3912	0	33704	
3913	0	33704	
3914	0	33704	
3915	0	33720	
3916	0	33714	
3917	0	33696	
3918	0	33720	
3919	0	33722	
3920	0	33713	
3921	0	33728	
3922	0	33728	
3923	0	33720	
3924	0	33712	
3925	0	33692	
3926	0	33688	
3927	0	33708	
3928	0	33728	
3929	0	33692	
3930	0	33688	
3931	0	33692	
3932	0	33696	
3933	0	33704	
3934	0	33696	
3935	0	33708	
3936	0	33697	
3937	0	33721	
3938	0	33716	
3939	0	33720	
3940	0	33690	
3941	0	33696	
3942	0	33700	
3943	0	33712	
3944	0	33696	
3945	0	33722	
3946	0	33712	
3947	0	33721	
3948	0	33692	
3949	0	33735	
3950	0	33720	
3951	0	33696	
3952	0	33708	
3953	0	33700	
3954	0	33708	
3955	0	33699	
3956	0	33712	
3957	0	33721	
3958	0	33720	
3959	0	33732	
3960	0	33696	
3961	0	33696	
3962	0	33696	
3963	0	33692	
3964	0	33706	
3965	0	33714	
3966	0	33697	
3967	0	33696	
3968	0	33728	
3969	0	33705	
3970	0	33692	
3971	0	33697	
3972	0	33714	
3973	0	33704	
3974	0	33712	
3975	0	33720	
3976	0	33712	
3977	0	33720	
3978	0	33712	
3979	0	33716	
3980	0	33692	
3981	0	33706	
3982	0	33698	
3983	0	33692	
3984	0	33710	
3985	0	33713	
3986	0	33696	
3987	0	33704	
3988	0	33712	
3989	0	33704	
3990	0	33706	
3991	0	33720	
3992	0	33704	
3993	0	33714	
3994	0	33706	
3995	0	33700	
3996	0	33680	
3997	0	33696	
3998	0	33704	
3999	0	33723	
4000	0	33710	
4001	0	33712	
4002	0	33704	
4003	0	33692	
4004	0	33712	
4005	0	33714	
4006	0	33700	
4007	0	33720	
4008	0	33712	
4009	0	33698	
4010	0	33712	
4011	0	33694	
4012	0	33680	
4013	0	33724	
4014	0	33718	
4015	0	33704	
4016	0	33692	
4017	0	33680	
4018	0	33696	
4019	0	33704	
4020	0	33693	
4021	0	33696	
4022	0	33712	
4023	0	33732	
4024	0	33720	
4025	0	33728	
4026	0	33693	
4027	0	33704	
4028	0	33688	
4029	0	33724	
4030	0	33696	
4031	0	33730	
4032	0	33707	
4033	0	33682	
4034	0	33704	
4035	0	33701	
4036	0	33716	
4037	0	33704	
4038	0	33725	
4039	0	33701	
4040	0	33716	
4041	0	33728	
4042	0	33698	
4043	0	33714	
4044	0	33708	
4045	0	33696	
4046	0	33708	
4047	0	33728	
4048	0	33693	
4049	0	33697	
4050	0	33712	
4051	0	33704	
4052	0	33697	
4053	0	33720	
4054	0	33710	
4055	0	33721	
4056	0	33712	
4057	0	33728	
4058	0	33720	
4059	0	33698	
4060	0	33712	
4061	0	33704	
4062	0	33698	
4063	0	33712	
4064	0	33720	
4065	0	33718	
4066	0	33706	
4067	0	33720	
4068	0	33731	
4069	0	33700	
4070	0	33707	
4071	0	33684	
4072	0	33700	
4073	0	33712	
4074	0	33712	
4075	0	33720	
4076	0	33706	
4077	0	33688	
4078	0	33696	
4079	0	33704	
4080	0	33736	
4081	0	33732	
4082	0	33720	
4083	0	33712	
4084	0	33701	
4085	0	33722	
4086	0	33692	
4087	0	33720	
4088	0	33712	
4089	0	33732	
4090	0	33689	
4091	0	33725	
4092	0	33706	
4093	0	33697	
4094	0	33712	
4095	0	33728	
4096	0	33723	
4097	0	33704	
4098	0	33720	
4099	0	33712	
4100	0	33696	
4101	0	33704	
4102	0	33714	
4103	0	33698	
4104	0	33704	
4105	0	33712	
4106	0	33720	
4107	0	33712	
4108	0	33696	
4109	0	33721	
4110	0	33715	
4111	0	33740	
4112	0	33718	
4113	0	33704	
4114	0	33708	
4115	0	33720	
4116	0	33710	
4117	0	33728	
4118	0	33712	
4119	0	33728	
4120	0	33698	
4121	0	33731	
4122	0	33728	
4123	0	33722	
4124	0	33707	
4125	0	33688	
4126	0	33712	
4127	0	33712	
4128	0	33704	
4129	0	33728	
4130	0	33696	
4131	0	33714	
4132	0	33700	
4133	0	33704	
4134	0	33712	
4135	0	33720	
4136	0	33714	
4137	0	33712	
4138	0	33724	
4139	0	33730	
4140	0	33696	
4141	0	33714	
4142	0	33716	
4143	0	33720	
4144	0	33712	
4145	0	33700	
4146	0	33704	
4147	0	33712	
4148	0	33712	
4149	0	33720	
4150	0	33714	
4151	0	33714	
4152	0	33720	
4153	0	33696	
4154	0	33706	
4155	0	33704	
4156	0	33712	
4157	0	33712	
4158	0	33704	
4159	0	33720	
4160	0	33696	
4161	0	33704	
4162	0	33696	
4163	0	33706	
4164	0	33704	
4165	0	33692	
4166	0	33708	
4167	0	33696	
4168	0	33696	
4169	0	33704	
4170	0	33697	
4171	0	33714	
4172	0	33722	
4173	0	33712	
4174	0	33716	
4175	0	33708	
4176	0	33708	
4177	0	33707	
4178	0	33716	
4179	0	33736	
4180	0	33728	
4181	0	33705	
4182	0	33704	
4183	0	33712	
4184	0	33706	
4185	0	33728	
4186	0	33714	
4187	0	33720	
4188	0	33720	
4189	0	33714	
4190	0	33704	
4191	0	33728	
4192	0	33720	
4193	0	33708	
4194	0	33712	
4195	0	33704	
4196	0	33700	
4197	0	33712	
4198	0	33696	
4199	0	33718	
4200	0	33704	
4201	0	33724	
4202	0	33720	
4203	0	33708	
4204	0	33704	
4205	0	33696	
4206	0	33680	
4207	0	33724	
4208	0	33700	
4209	0	33728	
4210	0	33728	
4211	0	33699	
4212	0	33721	
4213	0	33716	
4214	0	33712	
4215	0	33721	
4216	0	33704	
4217	0	33720	
4218	0	33714	
4219	0	33720	
4220	0	33716	
4221	0	33712	
4222	0	33704	
4223	0	33698	
4224	0	33704	
4225	0	33720	
4226	0	33708	
4227	0	33720	
4228	0	33704	
4229	0	33716	
4230	0	33697	
4231	0	33704	
4232	0	33688	
4233	0	33716	
4234	0	33712	
4235	0	33706	
4236	0	33728	
4237	0	33714	
4238	0	33720	
4239	0	33684	
4240	0	33730	
4241	0	33710	
4242	0	33704	
4243	0	33712	
4244	0	33716	
4245	0	33708	
4246	0	33712	
4247	0	33712	
4248	0	33701	
4249	0	33698	
4250	0	33720	
4251	0	33704	
4252	0	33701	
4253	0	33714	
4254	0	33712	
4255	0	33704	
4256	0	33732	
4257	0	33714	
4258	0	33712	
4259	0	33704	
4260	0	33712	
4261	0	33720	
4262	0	33705	
4263	0	33712	
4264	0	33696	
4265	0	33724	
4266	0	33714	
4267	0	33696	
4268	0	33720	
4269	0	33696	
4270	0	33704	
4271	0	33724	
4272	0	33700	
4273	0	33722	
4274	0	33720	
4275	0	33720	
4276	0	33692	
4277	0	33720	
4278	0	33722	
4279	0	33712	
4280	0	33710	
4281	0	33720	
4282	0	33712	
4283	0	33704	
4284	0	33712	
4285	0	33696	
4286	0	33712	
4287	0	33712	
4288	0	33692	
4289	0	33722	
4290	0	33724	
4291	0	33716	
4292	0	33696	
4293	0	33700	
4294	0	33704	
4295	0	33716	
4296	0	33728	
4297	0	33712	
4298	0	33724	
4299	0	33693	
4300	0	33716	
4301	0	33700	
4302	0	33708	
4303	0	33714	
4304	0	33720	
4305	0	33689	
4306	0	33708	
4307	0	33712	
4308	0	33721	
4309	0	33720	
4310	0	33704	
4311	0	33708	
4312	0	33700	
4313	0	33706	
4314	0	33714	
4315	0	33720	
4316	0	33706	
4317	0	33712	
4318	0	33704	
4319	0	33712	
4320	0	33734	
4321	0	33700	
4322	0	33716	
4323	0	33706	
4324	0	33704	
4325	0	33710	
4326	0	33721	
4327	0	33720	
4328	0	33704	
4329	0	33728	
4330	0	33720	
4331	0	33699	
4332	0	33704	
4333	0	33704	
4334	0	33704	
4335	0	33704	
4336	0	33704	
4337	0	33706	
4338	0	33720	
4339	0	33728	
4340	0	33728	
4341	0	33712	
4342	0	33716	
4343	0	33708	
4344	0	33714	
4345	0	33724	
4346	0	33693	
4347	0	33728	
4348	0	33716	
4349	0	33728	
4350	0	33704	
4351	0	33728	
4352	0	33724	
4353	0	33716	
4354	0	33710	
4355	0	33720	
4356	0	33704	
4357	0	33693	
4358	0	33722	
4359	0	33714	
4360	0	33708	
4361	0	33712	
4362	0	33696	
4363	0	33720	
4364	0	33720	
4365	0	33697	
4366	0	33696	
4367	0	33712	
4368	0	33718	
4369	0	33706	
4370	0	33714	
4371	0	33698	
4372	0	33728	
4373	0	33708	
4374	0	33706	
4375	0	33721	
4376	0	33716	
4377	0	33720	
4378	0	33704	
4379	0	33715	
4380	0	33720	
4381	0	33697	
4382	0	33712	
4383	0	33696	
4384	0	33712	
4385	0	33697	
4386	0	33706	
4387	0	33723	
4388	0	33722	
4389	0	33712	
4390	0	33730	
4391	0	33704	
4392	0	33716	
4393	0	33725	
4394	0	33706	
4395	0	33704	
4396	0	33704	
4397	0	33728	
4398	0	33732	
4399	0	33716	
4400	0	33714	
4401	0	33706	
4402	0	33716	
4403	0	33712	
4404	0	33724	
4405	0	33716	
4406	0	33701	
4407	0	33716	
4408	0	33704	
4409	0	33706	
4410	0	33724	
4411	0	33712	
4412	0	33736	
4413	0	33708	
4414	0	33712	
4415	0	33704	
4416	0	33722	
4417	0	33720	
4418	0	33724	
4419	0	33722	
4420	0	33700	
4421	0	33728	
4422	0	33722	
4423	0	33716	
4424	0	33708	
4425	0	33712	
4426	0	33704	
4427	0	33712	
4428	0	33720	
4429	0	33700	
4430	0	33712	
4431	0	33701	
4432	0	33728	
4433	0	33724	
4434	0	33714	
4435	0	33704	
4436	0	33701	
4437	0	33704	
4438	0	33728	
4439	0	33724	
4440	0	33704	
4441	0	33712	
4442	0	33722	
4443	0	33730	
4444	0	33720	
4445	0	33697	
4446	0	33720	
4447	0	33720	
4448	0	33714	
4449	0	33704	
4450	0	33714	
4451	0	33705	
4452	0	33708	
4453	0	33712	
4454	0	33720	
4455	0	33712	
4456	0	33714	
4457	0	33714	
4458	0	33722	
4459	0	33712	
4460	0	33704	
4461	0	33708	
4462	0	33720	
4463	0	33721	
4464	0	33728	
4465	0	33712	
4466	0	33722	
4467	0	33728	
4468	0	33722	
4469	0	33712	
4470	0	33706	
4471	0	33700	
4472	0	33714	
4473	0	33700	
4474	0	33716	
4475	0	33720	
4476	0	33720	
4477	0	33716	
4478	0	33728	
4479	0	33708	
4480	0	33724	
4481	0	33728	
4482	0	33720	
4483	0	33704	
4484	0	33728	
4485	0	33720	
4486	0	33714	
4487	0	33722	
4488	0	33714	
4489	0	33740	
4490	0	33700	
4491	0	33730	
4492	0	33700	
4493	0	33712	
4494	0	33724	
4495	0	33720	
4496	0	33712	
4497	0	33728	
4498	0	33712	
4499	0	33704	
4500	0	33688	
4501	0	33707	
4502	0	33704	
4503	0	33696	
4504	0	33712	
4505	0	33730	
4506	0	33700	
4507	0	33712	
4508	0	33712	
4509	0	33704	
4510	0	33720	
4511	0	33724	
4512	0	33728	
4513	0	33714	
4514	0	33722	
4515	0	33724	
4516	0	33704	
4517	0	33732	
4518	0	33705	
4519	0	33732	
4520	0	33712	
4521	0	33720	
4522	0	33720	
4523	0	33728	
4524	0	33698	
4525	0	33716	
4526	0	33720	
4527	0	33734	
4528	0	33698	
4529	0	33716	
4530	0	33708	
4531	0	33712	
4532	0	33708	
4533	0	33721	
4534	0	33700	
4535	0	33728	
4536	0	33732	
4537	0	33700	
4538	0	33740	
4539	0	33736	
4540	0	33730	
4541	0	33722	
4542	0	33728	
4543	0	33723	
4544	0	33720	
4545	0	33730	
4546	0	33728	
4547	0	33708	
4548	0	33690	
4549	0	33704	
4550	0	33728	
4551	0	33712	
4552	0	33712	
4553	0	33704	
4554	0	33726	
4555	0	33728	
4556	0	33706	
4557	0	33718	
4558	0	33700	
4559	0	33720	
4560	0	33720	
4561	0	33720	
4562	0	33708	
4563	0	33714	
4564	0	33716	
4565	0	33712	
4566	0	33739	
4567	0	33725	
4568	0	33704	
4569	0	33704	
4570	0	33706	
4571	0	33696	
4572	0	33728	
4573	0	33728	
4574	0	33728	
4575	0	33712	
4576	0	33706	
4577	0	33704	
4578	0	33725	
4579	0	33724	
4580	0	33704	
4581	0	33704	
4582	0	33708	
4583	0	33708	
4584	0	33728	
4585	0	33728	
4586	0	33732	
4587	0	33728	
4588	0	33712	
4589	0	33700	
4590	0	33704	
4591	0	33721	
4592	0	33696	
4593	0	33720	
4594	0	33708	
4595	0	33714	
4596	0	33724	
4597	0	33698	
4598	0	33700	
4599	0	33704	
4600	0	33720	
4601	0	33714	
4602	0	33706	
4603	0	33705	
4604	0	33712	
4605	0	33712	
4606	0	33712	
4607	0	33698	
4608	0	33697	
4609	0	33728	
4610	0	33708	
4611	0	33720	
4612	0	33728	
4613	0	33738	
4614	0	33724	
4615	0	33712	
4616	0	33714	
4617	0	33697	
4618	0	33728	
4619	0	33733	
4620	0	33714	
4621	0	33704	
4622	0	33720	
4623	0	33728	
4624	0	33740	
4625	0	33722	
4626	0	33704	
4627	0	33732	
4628	0	33716	
4629	0	33734	
4630	0	33714	
4631	0	33733	
4632	0	33708	
4633	0	33720	
4634	0	33716	
4635	0	33728	
4636	0	33720	
4637	0	33730	
4638	0	33692	
4639	0	33726	
4640	0	33714	
4641	0	33712	
4642	0	33720	
4643	0	33698	
4644	0	33728	
4645	0	33720	
4646	0	33720	
4647	0	33716	
4648	0	33697	
4649	0	33732	
4650	0	33720	
4651	0	33714	
4652	0	33712	
4653	0	33722	
4654	0	33714	
4655	0	33716	
4656	0	33706	
4657	0	33722	
4658	0	33712	
4659	0	33741	
4660	0	33728	
4661	0	33720	
4662	0	33712	
4663	0	33728	
4664	0	33720	
4665	0	33696	
4666	0	33730	
4667	0	33720	
4668	0	33720	
4669	0	33736	
4670	0	33704	
4671	0	33712	
4672	0	33714	
4673	0	33712	
4674	0	33714	
4675	0	33712	
4676	0	33732	
4677	0	33710	
4678	0	33704	
4679	0	33728	
4680	0	33720	
4681	0	33720	
4682	0	33723	
4683	0	33690	
4684	0	33696	
4685	0	33706	
4686	0	33736	
4687	0	33728	
4688	0	33730	
4689	0	33720	
4690	0	33724	
4691	0	33734	
4692	0	33712	
4693	0	33704	
4694	0	33716	
4695	0	33706	
4696	0	33746	
4697	0	33728	
4698	0	33708	
4699	0	33714	
4700	0	33720	
4701	0	33730	
4702	0	33704	
4703	0	33737	
4704	0	33728	
4705	0	33732	
4706	0	33732	
4707	0	33733	
4708	0	33712	
4709	0	33704	
4710	0	33736	
4711	0	33706	
4712	0	33704	
4713	0	33712	
4714	0	33729	
4715	0	33692	
4716	0	33716	
4717	0	33734	
4718	0	33728	
4719	0	33720	
4720	0	33732	
4721	0	33706	
4722	0	33704	
4723	0	33704	
4724	0	33712	
4725	0	33720	
4726	0	33732	
4727	0	33712	
4728	0	33706	
4729	0	33722	
4730	0	33732	
4731	0	33705	
4732	0	33721	
4733	0	33712	
4734	0	33696	
4735	0	33720	
4736	0	33740	
4737	0	33737	
4738	0	33720	
4739	0	33708	
4740	0	33730	
4741	0	33728	
4742	0	33736	
4743	0	33720	
4744	0	33732	
4745	0	33724	
4746	0	33724	
4747	0	33732	
4748	0	33704	
4749	0	33728	
4750	0	33714	
4751	0	33725	
4752	0	33720	
4753	0	33704	
4754	0	33730	
4755	0	33712	
4756	0	33705	
4757	0	33716	
4758	0	33737	
4759	0	33714	
4760	0	33724	
4761	0	33734	
4762	0	33712	
4763	0	33732	
4764	0	33712	
4765	0	33735	
4766	0	33732	
4767	0	33712	
4768	0	33736	
4769	0	33716	
4770	0	33734	
4771	0	33720	
4772	0	33704	
4773	0	33704	
4774	0	33728	
4775	0	33720	
4776	0	33720	
4777	0	33712	
4778	0	33728	
4779	0	33728	
4780	0	33712	
4781	0	33704	
4782	0	33728	
4783	0	33720	
4784	0	33712	
4785	0	33715	
4786	0	33714	
4787	0	33736	
4788	0	33736	
4789	0	33742	
4790	0	33712	
4791	0	33698	
4792	0	33716	
4793	0	33732	
4794	0	33720	
4795	0	33714	
4796	0	33735	
4797	0	33736	
4798	0	33728	
4799	0	33725	
4800	0	33722	
4801	0	33724	
4802	0	33733	
4803	0	33732	
4804	0	33728	
4805	0	33726	
4806	0	33738	
4807	0	33738	
4808	0	33730	
4809	0	33732	
4810	0	33714	
4811	0	33740	
4812	0	33704	
4813	0	33720	
4814	0	33737	
4815	0	33712	
4816	0	33706	
4817	0	33732	
4818	0	33696	
4819	0	33712	
4820	0	33728	
4821	0	33712	
4822	0	33716	
4823	0	33720	
4824	0	33704	
4825	0	33712	
4826	0	33736	
4827	0	33712	
4828	0	33700	
4829	0	33716	
4830	0	33708	
4831	0	33728	
4832	0	33714	
4833	0	33704	
4834	0	33712	
4835	0	33723	
4836	0	33728	
4837	0	33720	
4838	0	33730	
4839	0	33724	
4840	0	33696	
4841	0	33712	
4842	0	33734	
4843	0	33730	
4844	0	33704	
4845	0	33732	
4846	0	33720	
4847	0	33712	
4848	0	33709	
4849	0	33706	
4850	0	33720	
4851	0	33696	
4852	0	33725	
4853	0	33730	
4854	0	33740	
4855	0	33716	
4856	0	33696	
4857	0	33708	
4858	0	33736	
4859	0	33698	
4860	0	33706	
4861	0	33714	
4862	0	33704	
4863	0	33740	
4864	0	33712	
4865	0	33728	
4866	0	33724	
4867	0	33736	
4868	0	33706	
4869	0	33712	
4870	0	33720	
4871	0	33725	
4872	0	33728	
4873	0	33728	
4874	0	33733	
4875	0	33720	
4876	0	33720	
4877	0	33738	
4878	0	33720	
4879	0	33720	
4880	0	33720	
4881	0	33732	
4882	0	33732	
4883	0	33728	
4884	0	33728	
4885	0	33722	
4886	0	33704	
4887	0	33705	
4888	0	33722	
4889	0	33704	
4890	0	33728	
4891	0	33721	
4892	0	33700	
4893	0	33714	
4894	0	33706	
4895	0	33712	
4896	0	33720	
4897	0	33712	
4898	0	33714	
4899	0	33704	
4900	0	33732	
4901	0	33722	
4902	0	33744	
4903	0	33700	
4904	0	33728	
4905	0	33712	
4906	0	33700	
4907	0	33730	
4908	0	33728	
4909	0	33708	
4910	0	33728	
4911	0	33728	
4912	0	33720	
4913	0	33720	
4914	0	33692	
4915	0	33714	
4916	0	33704	
4917	0	33708	
4918	0	33722	
4919	0	33728	
4920	0	33716	
4921	0	33728	
4922	0	33722	
4923	0	33736	
4924	0	33714	
4925	0	33712	
4926	0	33732	
4927	0	33712	
4928	0	33716	
4929	0	33720	
4930	0	33698	
4931	0	33712	
4932	0	33736	
4933	0	33692	
4934	0	33725	
4935	0	33720	
4936	0	33704	
4937	0	33714	
4938	0	33728	
4939	0	33712	
4940	0	33732	
4941	0	33704	
4942	0	33714	
4943	0	33708	
4944	0	33728	
4945	0	33722	
4946	0	33718	
4947	0	33728	
4948	0	33708	
4949	0	33708	
4950	0	33706	
4951	0	33712	
4952	0	33700	
4953	0	33730	
4954	0	33720	
4955	0	33714	
4956	0	33736	
4957	0	33712	
4958	0	33734	
4959	0	33696	
4960	0	33690	
4961	0	33724	
4962	0	33712	
4963	0	33680	
4964	0	33696	
4965	0	33716	
4966	0	33733	
4967	0	33696	
4968	0	33722	
4969	0	33698	
4970	0	33698	
4971	0	33700	
4972	0	33712	
4973	0	33728	
4974	0	33720	
4975	0	33714	
4976	0	33696	
4977	0	33712	
4978	0	33701	
4979	0	33716	
4980	0	33700	
4981	0	33721	
4982	0	33715	
4983	0	33696	
4984	0	33700	
4985	0	33704	
4986	0	33698	
4987	0	33720	
4988	0	33720	
4989	0	33720	
4990	0	33722	
4991	0	33696	
4992	0	33697	
4993	0	33712	
4994	0	33692	
4995	0	33704	
4996	0	33696	
4997	0	33708	
4998	0	33712	
4999	0	33730	
5000	0	33692	
5001	0	33720	
5002	0	33728	
5003	0	33692	
5004	0	33716	
5005	0	33698	
5006	0	33688	
5007	0	33700	
5008	0	33712	
5009	0	33693	
5010	0	33693	
5011	0	33712	
5012	0	33714	
5013	0	33700	
5014	0	33712	
5015	0	33700	
5016	0	33684	
5017	0	33710	
5018	0	33712	
5019	0	33688	
5020	0	33688	
5021	0	33696	
5022	0	33706	
5023	0	33714	
5024	0	33720	
5025	0	33698	
5026	0	33692	
5027	0	33712	
5028	0	33720	
5029	0	33720	
5030	0	33688	
5031	0	33694	
5032	0	33696	
5033	0	33688	
5034	0	33690	
5035	0	33700	
5036	0	33714	
5037	0	33684	
5038	0	33680	
5039	0	33684	
5040	0	33684	
5041	0	33700	
5042	0	33704	
5043	0	33704	
5044	0	33712	
5045	0	33704	
5046	0	33688	
5047	0	33722	
5048	0	33692	
5049	0	33708	
5050	0	33704	
5051	0	33688	
5052	0	33684	
5053	0	33680	
5054	0	33676	
5055	0	33692	
5056	0	33684	
5057	0	33688	
5058	0	33704	
5059	0	33680	
5060	0	33674	
5061	0	33685	
5062	0	33696	
5063	0	33672	
5064	0	33696	
5065	0	33688	
5066	0	33698	
5067	0	33704	
5068	0	33688	
5069	0	33676	
5070	0	33696	
5071	0	33684	
5072	0	33688	
5073	0	33705	
5074	0	33692	
5075	0	33688	
5076	0	33698	
5077	0	33712	
5078	0	33697	
5079	0	33674	
5080	0	33668	
5081	0	33692	
5082	0	33696	
5083	0	33700	
5084	0	33686	
5085	0	33672	
5086	0	33672	
5087	0	33696	
5088	0	33682	
5089	0	33660	
5090	0	33666	
5091	0	33680	
5092	0	33692	
5093	0	33682	
5094	0	33704	
5095	0	33680	
5096	0	33693	
5097	0	33684	
5098	0	33689	
5099	0	33699	
5100	0	33688	
5101	0	33674	
5102	0	33672	
5103	0	33688	
5104	0	33672	
5105	0	33676	
5106	0	33676	
5107	0	33680	
5108	0	33674	
5109	0	33672	
5110	0	33692	
5111	0	33696	
5112	0	33656	
5113	0	33692	
5114	0	33684	
5115	0	33672	
5116	0	33674	
5117	0	33684	
5118	0	33661	
5119	0	33689	
5120	0	33688	
5121	0	33664	
5122	0	33677	
5123	0	33656	
5124	0	33668	
5125	0	33668	
5126	0	33652	
5127	0	33664	
5128	0	33664	
5129	0	33688	
5130	0	33665	
5131	0	33660	
5132	0	33653	
5133	0	33684	
5134	0	33672	
5135	0	33668	
5136	0	33669	
5137	0	33688	
5138	0	33678	
5139	0	33656	
5140	0	33674	
5141	0	33664	
5142	0	33672	
5143	0	33670	
5144	0	33678	
5145	0	33664	
5146	0	33678	
5147	0	33684	
5148	0	33676	
5149	0	33668	
5150	0	33634	
5151	0	33668	
5152	0	33672	
5153	0	33674	
5154	0	33666	
5155	0	33665	
5156	0	33664	
5157	0	33649	
5158	0	33652	
5159	0	33672	
5160	0	33670	
5161	0	33659	
5162	0	33648	
5163	0	33633	
5164	0	33660	
5165	0	33648	
5166	0	33650	
5167	0	33644	
5168	0	33666	
5169	0	33648	
5170	0	33664	
5171	0	33661	
5172	0	33648	
5173	0	33642	
5174	0	33664	
5175	0	33644	
5176	0	33656	
5177	0	33648	
5178	0	33648	
5179	0	33644	
5180	0	33656	
5181	0	33644	
5182	0	33658	
5183	0	33628	
5184	0	33656	
5185	0	33656	
5186	0	33648	
5187	0	33640	
5188	0	33650	
5189	0	33650	
5190	0	33636	
5191	0	33666	
5192	0	33656	
5193	0	33640	
5194	0	33656	
5195	0	33650	
5196	0	33656	
5197	0	33656	
5198	0	33648	
5199	0	33632	
5200	0	33652	
5201	0	33629	
5202	0	33628	
5203	0	33636	
5204	0	33636	
5205	0	33628	
5206	0	33632	
5207	0	33636	
5208	0	33636	
5209	0	33636	
5210	0	33628	
5211	0	33646	
5212	0	33636	
5213	0	33640	
5214	0	33644	
5215	0	33636	
5216	0	33656	
5217	0	33644	
5218	0	33648	
5219	0	33636	
5220	0	33632	
5221	0	33628	
5222	0	33634	
5223	0	33656	
5224	0	33640	
5225	0	33632	
5226	0	33634	
5227	0	33632	
5228	0	33612	
5229	0	33624	
5230	0	33636	
5231	0	33644	
5232	0	33624	
5233	0	33610	
5234	0	33624	
5235	0	33616	
5236	0	33644	
5237	0	33632	
5238	0	33636	
5239	0	33632	
5240	0	33636	
5241	0	33616	
5242	0	33624	
5243	0	33632	
5244	0	33613	
5245	0	33610	
5246	0	33611	
5247	0	33640	
5248	0	33616	
5249	0	33624	
5250	0	33642	
5251	0	33632	
5252	0	33640	
5253	0	33602	
5254	0	33608	
5255	0	33620	
5256	0	33608	
5257	0	33640	
5258	0	33649	
5259	0	33624	
5260	0	33619	
5261	0	33632	
5262	0	33636	
5263	0	33602	
5264	0	33606	
5265	0	33628	
5266	0	33620	
5267	0	33604	
5268	0	33617	
5269	0	33626	
5270	0	33620	
5271	0	33616	
5272	0	33597	
5273	0	33616	
5274	0	33602	
5275	0	33606	
5276	0	33610	
5277	0	33608	
5278	0	33621	
5279	0	33634	
5280	0	33592	
5281	0	33625	
5282	0	33611	
5283	0	33596	
5284	0	33624	
5285	0	33600	
5286	0	33618	
5287	0	33600	
5288	0	33608	
5289	0	33600	
5290	0	33592	
5291	0	33592	
5292	0	33594	
5293	0	33592	
5294	0	33616	
5295	0	33612	
5296	0	33604	
5297	0	33626	
5298	0	33612	
5299	0	33604	
5300	0	33596	
5301	0	33608	
5302	0	33610	
5303	0	33588	
5304	0	33596	
5305	0	33600	
5306	0	33604	
5307	0	33602	
5308	0	33611	
5309	0	33596	
5310	0	33600	
5311	0	33592	
5312	0	33604	
5313	0	33600	
5314	0	33610	
5315	0	33604	
5316	0	33605	
5317	0	33604	
5318	0	33608	
5319	0	33600	
5320	0	33586	
5321	0	33592	
5322	0	33600	
5323	0	33580	
5324	0	33588	
5325	0	33592	
5326	0	33594	
5327	0	33578	
5328	0	33592	
5329	0	33598	
5330	0	33580	
5331	0	33586	
5332	0	33576	
5333	0	33588	
5334	0	33580	
5335	0	33584	
5336	0	33600	
5337	0	33596	
5338	0	33576	
5339	0	33608	
5340	0	33572	
5341	0	33576	
5342	0	33604	
5343	0	33569	
5344	0	33580	
5345	0	33564	
5346	0	33580	
5347	0	33576	
5348	0	33596	
5349	0	33572	
5350	0	33568	
5351	0	33562	
5352	0	33592	
5353	0	33570	
5354	0	33585	
5355	0	33564	
5356	0	33581	
5357	0	33592	
5358	0	33576	
5359	0	33584	
5360	0	33556	
5361	0	33600	
5362	0	33572	
5363	0	33582	
5364	0	33552	
5365	0	33569	
5366	0	33568	
5367	0	33570	
5368	0	33573	
5369	0	33554	
5370	0	33568	
5371	0	33592	
5372	0	33572	
5373	0	33580	
5374	0	33565	
5375	0	33568	
5376	0	33570	
5377	0	33560	
5378	0	33568	
5379	0	33576	
5380	0	33568	
5381	0	33552	
5382	0	33554	
5383	0	33560	
5384	0	33578	
5385	0	33576	
5386	0	33568	
5387	0	33568	
5388	0	33540	
5389	0	33552	
5390	0	33580	
5391	0	33536	
5392	0	33561	
5393	0	33544	
5394	0	33568	
5395	0	33548	
5396	0	33560	
5397	0	33542	
5398	0	33536	
5399	0	33560	
5400	0	33540	
5401	0	33560	
5402	0	33580	
5403	0	33536	
5404	0	33562	
5405	0	33540	
5406	0	33558	
5407	0	33556	
5408	0	33556	
5409	0	33560	
5410	0	33538	
5411	0	33538	
5412	0	33544	
5413	0	33568	
5414	0	33558	
5415	0	33552	
5416	0	33540	
5417	0	33560	
5418	0	33552	
5419	0	33544	
5420	0	33565	
5421	0	33540	
5422	0	33532	
5423	0	33552	
5424	0	33538	
5425	0	33540	
5426	0	33552	
5427	0	33524	
5428	0	33552	
5429	0	33529	
5430	0	33540	
5431	0	33536	
5432	0	33552	
5433	0	33544	
5434	0	33554	
5435	0	33548	
5436	0	33534	
5437	0	33548	
5438	0	33553	
5439	0	33520	
5440	0	33540	
5441	0	33552	
5442	0	33524	
5443	0	33546	
5444	0	33520	
5445	0	33538	
5446	0	33536	
5447	0	33536	
5448	0	33544	
5449	0	33522	
5450	0	33544	
5451	0	33528	
5452	0	33548	
5453	0	33528	
5454	0	33548	
5455	0	33533	
5456	0	33540	
5457	0	33538	
5458	0	33539	
5459	0	33513	
5460	0	33516	
5461	0	33516	
5462	0	33528	
5463	0	33538	
5464	0	33538	
5465	0	33538	
5466	0	33522	
5467	0	33520	
5468	0	33508	
5469	0	33532	
5470	0	33523	
5471	0	33524	
5472	0	33520	
5473	0	33520	
5474	0	33522	
5475	0	33532	
5476	0	33508	
5477	0	33528	
5478	0	33531	
5479	0	33528	
5480	0	33532	
5481	0	33521	
5482	0	33504	
5483	0	33523	
5484	0	33512	
5485	0	33504	
5486	0	33522	
5487	0	33510	
5488	0	33496	
5489	0	33500	
5490	0	33512	
5491	0	33528	
5492	0	33505	
5493	0	33504	
5494	0	33520	
5495	0	33512	
5496	0	33516	
5497	0	33528	
5498	0	33504	
5499	0	33512	
5500	0	33522	
5501	0	33504	
5502	0	33513	
5503	0	33522	
5504	0	33496	
5505	0	33500	
5506	0	33520	
5507	0	33504	
5508	0	33488	
5509	0	33512	
5510	0	33508	
5511	0	33492	
5512	0	33480	
5513	0	33505	
5514	0	33516	
5515	0	33512	
5516	0	33492	
5517	0	33516	
5518	0	33490	
5519	0	33508	
5520	0	33510	
5521	0	33513	
5522	0	33510	
5523	0	33488	
5524	0	33504	
5525	0	33512	
5526	0	33504	
5527	0	33476	
5528	0	33504	
5529	0	33484	
5530	0	33488	
5531	0	33501	
5532	0	33488	
5533	0	33498	
5534	0	33518	
5535	0	33488	
5536	0	33496	
5537	0	33472	
5538	0	33504	
5539	0	33480	
5540	0	33480	
5541	0	33482	
5542	0	33476	
5543	0	33488	
5544	0	33518	
5545	0	33504	
5546	0	33472	
5547	0	33500	
5548	0	33508	
5549	0	33496	
5550	0	33500	
5551	0	33482	
5552	0	33500	
5553	0	33474	
5554	0	33476	
5555	0	33488	
5556	0	33492	
5557	0	33489	
5558	0	33495	
5559	0	33504	
5560	0	33494	
5561	0	33480	
5562	0	33480	
5563	0	33483	
5564	0	33504	
5565	0	33480	
5566	0	33488	
5567	0	33456	
5568	0	33480	
5569	0	33500	
5570	0	33488	
5571	0	33460	
5572	0	33488	
5573	0	33490	
5574	0	33500	
5575	0	33485	
5576	0	33490	
5577	0	33465	
5578	0	33469	
5579	0	33492	
5580	0	33472	
5581	0	33488	
5582	0	33456	
5583	0	33484	
5584	0	33464	
5585	0	33480	
5586	0	33460	
5587	0	33460	
5588	0	33468	
5589	0	33468	
5590	0	33476	
5591	0	33458	
5592	0	33448	
5593	0	33472	
5594	0	33480	
5595	0	33474	
5596	0	33472	
5597	0	33456	
5598	0	33452	
5599	0	33464	
5600	0	33480	
5601	0	33456	
5602	0	33480	
5603	0	33472	
5604	0	33489	
5605	0	33469	
5606	0	33465	
5607	0	33498	
5608	0	33456	
5609	0	33476	
5610	0	33452	
5611	0	33456	
5612	0	33461	
5613	0	33448	
5614	0	33452	
5615	0	33456	
5616	0	33452	
5617	0	33453	
5618	0	33452	
5619	0	33472	
5620	0	33474	
5621	0	33460	
5622	0	33456	
5623	0	33468	
5624	0	33442	
5625	0	33450	
5626	0	33472	
5627	0	33478	
5628	0	33456	
5629	0	33469	
5630	0	33432	
5631	0	33460	
5632	0	33474	
5633	0	33437	
5634	0	33464	
5635	0	33465	
5636	0	33458	
5637	0	33460	
5638	0	33440	
5639	0	33472	
5640	0	33444	
5641	0	33464	
5642	0	33466	
5643	0	33460	
5644	0	33452	
5645	0	33452	
5646	0	33456	
5647	0	33432	
5648	0	33440	
5649	0	33452	
5650	0	33472	
5651	0	33464	
5652	0	33440	
5653	0	33464	
5654	0	33456	
5655	0	33448	
5656	0	33448	
5657	0	33452	
5658	0	33440	
5659	0	33458	
5660	0	33456	
5661	0	33436	
5662	0	33434	
5663	0	33452	
5664	0	33448	
5665	0	33449	
5666	0	33452	
5667	0	33440	
5668	0	33448	
5669	0	33435	
5670	0	33466	
5671	0	33432	
5672	0	33440	
5673	0	33452	
5674	0	33456	
5675	0	33436	
5676	0	33434	
5677	0	33458	
5678	0	33448	
5679	0	33424	
5680	0	33440	
5681	0	33426	
5682	0	33418	
5683	0	33426	
5684	0	33448	
5685	0	33428	
5686	0	33456	
5687	0	33458	
5688	0	33444	
5689	0	33438	
5690	0	33451	
5691	0	33434	
5692	0	33434	
5693	0	33408	
5694	0	33420	
5695	0	33440	
5696	0	33416	
5697	0	33412	
5698	0	33440	
5699	0	33416	
5700	0	33408	
5701	0	33442	
5702	0	33432	
5703	0	33442	
5704	0	33448	
5705	0	33436	
5706	0	33421	
5707	0	33440	
5708	0	33440	
5709	0	33432	
5710	0	33420	
5711	0	33436	
5712	0	33413	
5713	0	33440	
5714	0	33424	
5715	0	33428	
5716	0	33424	
5717	0	33412	
5718	0	33432	
5719	0	33424	
5720	0	33430	
5721	0	33408	
5722	0	33418	
5723	0	33434	
5724	0	33404	
5725	0	33408	
5726	0	33418	
5727	0	33428	
5728	0	33408	
5729	0	33400	
5730	0	33434	
5731	0	33410	
5732	0	33428	
5733	0	33412	
5734	0	33410	
5735	0	33432	
5736	0	33420	
5737	0	33424	
5738	0	33432	
5739	0	33416	
5740	0	33437	
5741	0	33424	
5742	0	33416	
5743	0	33396	
5744	0	33416	
5745	0	33396	
5746	0	33420	
5747	0	33402	
5748	0	33424	
5749	0	33400	
5750	0	33394	
5751	0	33424	
5752	0	33388	
5753	0	33403	
5754	0	33392	
5755	0	33408	
5756	0	33412	
5757	0	33416	
5758	0	33412	
5759	0	33408	
5760	0	33412	
5761	0	33400	
5762	0	33394	
5763	0	33394	
5764	0	33381	
5765	0	33400	
5766	0	33400	
5767	0	33408	
5768	0	33424	
5769	0	33416	
5770	0	33402	
5771	0	33412	
5772	0	33392	
5773	0	33424	
5774	0	33408	
5775	0	33402	
5776	0	33400	
5777	0	33376	
5778	0	33401	
5779	0	33388	
5780	0	33409	
5781	0	33400	
5782	0	33376	
5783	0	33408	
5784	0	33412	
5785	0	33376	
5786	0	33392	
5787	0	33380	
5788	0	33380	
5789	0	33410	
5790	0	33392	
5791	0	33408	
5792	0	33392	
5793	0	33408	
5794	0	33392	
5795	0	33394	
5796	0	33388	
5797	0	33404	
5798	0	33400	
5799	0	33394	
5800	0	33408	
5801	0	33404	
5802	0	33393	
5803	0	33390	
5804	0	33380	
5805	0	33384	
5806	0	33388	
5807	0	33376	
5808	0	33392	
5809	0	33392	
5810	0	33404	
5811	0	33386	
5812	0	33400	
5813	0	33388	
5814	0	33378	
5815	0	33386	
5816	0	33394	
5817	0	33354	
5818	0	33376	
5819	0	33388	
5820	0	33392	
5821	0	33408	
5822	0	33392	
5823	0	33396	
5824	0	33392	
5825	0	33380	
5826	0	33388	
5827	0	33384	
5828	0	33392	
5829	0	33392	
5830	0	33368	
5831	0	33396	
5832	0	33392	
5833	0	33374	
5834	0	33360	
5835	0	33394	
5836	0	33384	
5837	0	33376	
5838	0	33372	
5839	0	33368	
5840	0	33364	
5841	0	33388	
5842	0	33380	
5843	0	33352	
5844	0	33370	
5845	0	33400	
5846	0	33376	
5847	0	33376	
5848	0	33392	
5849	0	33368	
5850	0	33361	
5851	0	33384	
5852	0	33388	
5853	0	33352	
5854	0	33368	
5855	0	33364	
5856	0	33382	
5857	0	33380	
5858	0	33368	
5859	0	33392	
5860	0	33352	
5861	0	33362	
5862	0	33378	
5863	0	33380	
5864	0	33380	
5865	0	33368	
5866	0	33364	
5867	0	33364	
5868	0	33388	
5869	0	33374	
5870	0	33356	
5871	0	33376	
5872	0	33360	
5873	0	33353	
5874	0	33376	
5875	0	33354	
5876	0	33368	
5877	0	33365	
5878	0	33350	
5879	0	33356	
5880	0	33368	
5881	0	33352	
5882	0	33350	
5883	0	33354	
5884	0	33380	
5885	0	33352	
5886	0	33364	
5887	0	33376	
5888	0	33355	
5889	0	33380	
5890	0	33376	
5891	0	33352	
5892	0	33344	
5893	0	33360	
5894	0	33371	
5895	0	33378	
5896	0	33361	
5897	0	33352	
5898	0	33374	
5899	0	33368	
5900	0	33344	
5901	0	33340	
5902	0	33353	
5903	0	33341	
5904	0	33360	
5905	0	33372	
5906	0	33349	
5907	0	33364	
5908	0	33360	
5909	0	33360	
5910	0	33348	
5911	0	33356	
5912	0	33360	
5913	0	33340	
5914	0	33356	
5915	0	33371	
5916	0	33348	
5917	0	33370	
5918	0	33352	
5919	0	33346	
5920	0	33372	
5921	0	33370	
5922	0	33360	
5923	0	33336	
5924	0	33342	
5925	0	33344	
5926	0	33348	
5927	0	33338	
5928	0	33364	
5929	0	33344	
5930	0	33360	
5931	0	33360	
5932	0	33355	
5933	0	33356	
5934	0	33340	
5935	0	33342	
5936	0	33348	
5937	0	33352	
5938	0	33344	
5939	0	33352	
5940	0	33346	
5941	0	33346	
5942	0	33344	
5943	0	33360	
5944	0	33344	
5945	0	33324	
5946	0	33355	
5947	0	33352	
5948	0	33348	
5949	0	33344	
5950	0	33320	
5951	0	33348	
5952	0	33352	
5953	0	33324	
5954	0	33346	
5955	0	33346	
5956	0	33351	
5957	0	33348	
5958	0	33328	
5959	0	33316	
5960	0	33326	
5961	0	33340	
5962	0	33352	
5963	0	33332	
5964	0	33345	
5965	0	33344	
5966	0	33343	
5967	0	33344	
5968	0	33320	
5969	0	33349	
5970	0	33322	
5971	0	33312	
5972	0	33328	
5973	0	33338	
5974	0	33336	
5975	0	33328	
5976	0	33328	
5977	0	33328	
5978	0	33352	
5979	0	33332	
5980	0	33329	
5981	0	33332	
5982	0	33337	
5983	0	33305	
5984	0	33324	
5985	0	33314	
5986	0	33332	
5987	0	33338	
5988	0	33340	
5989	0	33313	
5990	0	33340	
5991	0	33320	
5992	0	33320	
5993	0	33318	
5994	0	33330	
5995	0	33329	
5996	0	33336	
5997	0	33332	
5998	0	33336	
5999	0	33344	
6000	0	33337	
6001	0	33341	
6002	0	33312	
6003	0	33331	
6004	0	33324	
6005	0	33316	
6006	0	33330	
6007	0	33344	
6008	0	33296	
6009	0	33340	
6010	0	33320	
6011	0	33309	
6012	0	33332	
6013	0	33312	
6014	0	33338	
6015	0	33329	
6016	0	33328	
6017	0	33332	
6018	0	33292	
6019	0	33340	
6020	0	33308	
6021	0	33328	
6022	0	33328	
6023	0	33320	
6024	0	33306	
6025	0	33324	
6026	0	33312	
6027	0	33312	
6028	0	33328	
6029	0	33336	
6030	0	33312	
6031	0	33306	
6032	0	33336	
6033	0	33306	
6034	0	33312	
6035	0	33324	
6036	0	33312	
6037	0	33328	
6038	0	33340	
6039	0	33332	
6040	0	33322	
6041	0	33312	
6042	0	33312	
6043	0	33313	
6044	0	33304	
6045	0	33304	
6046	0	33305	
6047	0	33308	
6048	0	33296	
6049	0	33316	
6050	0	33296	
6051	0	33314	
6052	0	33312	
6053	0	33332	
6054	0	33321	
6055	0	33304	
6056	0	33305	
6057	0	33308	
6058	0	33308	
6059	0	33286	
6060	0	33312	
6061	0	33320	
6062	0	33325	
6063	0	33312	
6064	0	33308	
6065	0	33307	
6066	0	33314	
6067	0	33341	
6068	0	33322	
6069	0	33302	
6070	0	33287	
6071	0	33316	
6072	0	33322	
6073	0	33284	
6074	0	33292	
6075	0	33304	
6076	0	33308	
6077	0	33292	
6078	0	33296	
6079	0	33282	
6080	0	33314	
6081	0	33314	
6082	0	33287	
6083	0	33298	
6084	0	33292	
6085	0	33312	
6086	0	33296	
6087	0	33312	
6088	0	33309	
6089	0	33304	
6090	0	33313	
6091	0	33305	
6092	0	33285	
6093	0	33312	
6094	0	33312	
6095	0	33309	
6096	0	33304	
6097	0	33280	
6098	0	33304	
6099	0	33323	
6100	0	33274	
6101	0	33286	
6102	0	33300	
6103	0	33280	
6104	0	33314	
6105	0	33287	
6106	0	33284	
6107	0	33312	
6108	0	33312	
6109	0	33306	
6110	0	33286	
6111	0	33304	
6112	0	33287	
6113	0	33309	
6114	0	33312	
6115	0	33286	
6116	0	33296	
6117	0	33305	
6118	0	33280	
6119	0	33287	
6120	0	33296	
6121	0	33284	
6122	0	33284	
6123	0	33304	
6124	0	33296	
6125	0	33287	
6126	0	33284	
6127	0	33273	
6128	0	33296	
6129	0	33312	
6130	0	33268	
6131	0	33286	
6132	0	33284	
6133	0	33296	
6134	0	33280	
6135	0	33292	
6136	0	33296	
6137	0	33296	
6138	0	33309	
6139	0	33300	
6140	0	33280	
6141	0	33284	
6142	0	33286	
6143	0	33280	
6144	0	33304	
6145	0	33272	
6146	0	33304	
6147	0	33266	
6148	0	33296	
6149	0	33296	
6150	0	33280	
6151	0	33296	
6152	0	33298	
6153	0	33306	
6154	0	33287	
6155	0	33287	
6156	0	33274	
6157	0	33287	
6158	0	33287	
6159	0	33274	
6160	0	33296	
6161	0	33296	
6162	0	33296	
6163	0	33286	
6164	0	33264	
6165	0	33287	
6166	0	33282	
6167	0	33284	
6168	0	33312	
6169	0	33264	
6170	0	33272	
6171	0	33282	
6172	0	33280	
6173	0	33272	
6174	0	33284	
6175	0	33285	
6176	0	33284	
6177	0	33284	
6178	0	33256	
6179	0	33296	
6180	0	33272	
6181	0	33280	
6182	0	33287	
6183	0	33284	
6184	0	33300	
6185	0	33272	
6186	0	33268	
6187	0	33280	
6188	0	33276	
6189	0	33300	
6190	0	33256	
6191	0	33287	
6192	0	33276	
6193	0	33256	
6194	0	33280	
6195	0	33264	
6196	0	33280	
6197	0	33268	
6198	0	33298	
6199	0	33272	
6200	0	33268	
6201	0	33260	
6202	0	33280	
6203	0	33284	
6204	0	33287	
6205	0	33276	
6206	0	33252	
6207	0	33260	
6208	0	33260	
6209	0	33280	
6210	0	33280	
6211	0	33260	
6212	0	33280	
6213	0	33272	
6214	0	33264	
6215	0	33252	
6216	0	33264	
6217	0	33260	
6218	0	33273	
6219	0	33272	
6220	0	33248	
6221	0	33248	
6222	0	33256	
6223	0	33260	
6224	0	33266	
6225	0	33266	
6226	0	33258	
6227	0	33248	
6228	0	33286	
6229	0	33276	
6230	0	33254	
6231	0	33252	
6232	0	33249	
6233	0	33300	
6234	0	33272	
6235	0	33252	
6236	0	33276	
6237	0	33272	
6238	0	33257	
6239	0	33264	
6240	0	33248	
6241	0	33268	
6242	0	33250	
6243	0	33260	
6244	0	33254	
6245	0	33248	
6246	0	33264	
6247	0	33257	
6248	0	33280	
6249	0	33248	
6250	0	33256	
6251	0	33244	
6252	0	33270	
6253	0	33252	
6254	0	33272	
6255	0	33268	
6256	0	33256	
6257	0	33274	
6258	0	33266	
6259	0	33256	
6260	0	33252	
6261	0	33240	
6262	0	33244	
6263	0	33253	
6264	0	33258	
6265	0	33264	
6266	0	33257	
6267	0	33274	
6268	0	33258	
6269	0	33242	
6270	0	33240	
6271	0	33256	
6272	0	33256	
6273	0	33258	
6274	0	33241	
6275	0	33260	
6276	0	33252	
6277	0	33257	
6278	0	33272	
6279	0	33255	
6280	0	33272	
6281	0	33256	
6282	0	33240	
6283	0	33234	
6284	0	33248	
6285	0	33264	
6286	0	33262	
6287	0	33266	
6288	0	33274	
6289	0	33252	
6290	0	33253	
6291	0	33264	
6292	0	33245	
6293	0	33248	
6294	0	33268	
6295	0	33257	
6296	0	33256	
6297	0	33276	
6298	0	33260	
6299	0	33244	
6300	0	33256	
6301	0	33264	
6302	0	33236	
6303	0	33237	
6304	0	33258	
6305	0	33256	
6306	0	33260	
6307	0	33230	
6308	0	33260	
6309	0	33242	
6310	0	33240	
6311	0	33248	
6312	0	33237	
6313	0	33244	
6314	0	33240	
6315	0	33232	
6316	0	33236	
6317	0	33256	
6318	0	33248	
6319	0	33244	
6320	0	33258	
6321	0	33253	
6322	0	33242	
6323	0	33266	
6324	0	33224	
6325	0	33248	
6326	0	33220	
6327	0	33232	
6328	0	33236	
6329	0	33242	
6330	0	33218	
6331	0	33256	
6332	0	33218	
6333	0	33252	
6334	0	33232	
6335	0	33236	
6336	0	33238	
6337	0	33240	
6338	0	33242	
6339	0	33209	
6340	0	33252	
6341	0	33216	
6342	0	33252	
6343	0	33244	
6344	0	33228	
6345	0	33220	
6346	0	33244	
6347	0	33248	
6348	0	33236	
6349	0	33236	
6350	0	33240	
6351	0	33252	
6352	0	33248	
6353	0	33252	
6354	0	33226	
6355	0	33252	
6356	0	33226	
6357	0	33238	
6358	0	33230	
6359	0	33248	
6360	0	33241	
6361	0	33221	
6362	0	33224	
6363	0	33232	
6364	0	33220	
6365	0	33248	
6366	0	33228	
6367	0	33241	
6368	0	33245	
6369	0	33242	
6370	0	33235	
6371	0	33250	
6372	0	33238	
6373	0	33228	
6374	0	33232	
6375	0	33218	
6376	0	33240	
6377	0	33234	
6378	0	33236	
6379	0	33232	
6380	0	33244	
6381	0	33236	
6382	0	33224	
6383	0	33228	
6384	0	33230	
6385	0	33232	
6386	0	33224	
6387	0	33244	
6388	0	33248	
6389	0	33236	
6390	0	33256	
6391	0	33228	
6392	0	33234	
6393	0	33236	
6394	0	33241	
6395	0	33219	
6396	0	33234	
6397	0	33216	
6398	0	33236	
6399	0	33216	
6400	0	33224	
6401	0	33244	
6402	0	33220	
6403	0	33217	
6404	0	33220	
6405	0	33236	
6406	0	33232	
6407	0	33236	
6408	0	33217	
6409	0	33220	
6410	0	33204	
6411	0	33240	
6412	0	33234	
6413	0	33217	
6414	0	33212	
6415	0	33228	
6416	0	33224	
6417	0	33236	
6418	0	33208	
6419	0	33213	
6420	0	33216	
6421	0	33232	
6422	0	33240	
6423	0	33208	
6424	0	33238	
6425	0	33220	
6426	0	33224	
6427	0	33232	
6428	0	33220	
6429	0	33220	
6430	0	33214	
6431	0	33232	
6432	0	33242	
6433	0	33224	
6434	0	33224	
6435	0	33224	
6436	0	33232	
6437	0	33224	
6438	0	33224	
6439	0	33232	
6440	0	33232	
6441	0	33200	
6442	0	33200	
6443	0	33208	
6444	0	33248	
6445	0	33236	
6446	0	33232	
6447	0	33232	
6448	0	33232	
6449	0	33216	
6450	0	33224	
6451	0	33224	
6452	0	33204	
6453	0	33204	
6454	0	33226	
6455	0	33224	
6456	0	33200	
6457	0	33212	
6458	0	33217	
6459	0	33208	
6460	0	33200	
6461	0	33224	
6462	0	33196	
6463	0	33232	
6464	0	33216	
6465	0	33202	
6466	0	33196	
6467	0	33202	
6468	0	33240	
6469	0	33244	
6470	0	33204	
6471	0	33208	
6472	0	33200	
6473	0	33224	
6474	0	33224	
6475	0	33192	
6476	0	33224	
6477	0	33220	
6478	0	33208	
6479	0	33204	
6480	0	33196	
6481	0	33208	
6482	0	33226	
6483	0	33220	
6484	0	33192	
6485	0	33218	
6486	0	33184	
6487	0	33228	
6488	0	33220	
6489	0	33192	
6490	0	33218	
6491	0	33212	
6492	0	33200	
6493	0	33205	
6494	0	33208	
6495	0	33209	
6496	0	33196	
6497	0	33216	
6498	0	33216	
6499	0	33202	
6500	0	33216	
6501	0	33216	
6502	0	33194	
6503	0	33218	
6504	0	33210	
6505	0	33208	
6506	0	33192	
6507	0	33222	
6508	0	33186	
6509	0	33216	
6510	0	33204	
6511	0	33221	
6512	0	33204	
6513	0	33206	
6514	0	33208	
6515	0	33194	
6516	0	33209	
6517	0	33216	
6518	0	33210	
6519	0	33216	
6520	0	33212	
6521	0	33208	
6522	0	33196	
6523	0	33204	
6524	0	33220	
6525	0	33212	
6526	0	33188	
6527	0	33192	
6528	0	33210	
6529	0	33200	
6530	0	33200	
6531	0	33208	
6532	0	33184	
6533	0	33186	
6534	0	33188	
6535	0	33186	
6536	0	33200	
6537	0	33208	
6538	0	33216	
6539	0	33224	
6540	0	33218	
6541	0	33216	
6542	0	33194	
6543	0	33216	
6544	0	33204	
6545	0	33204	
6546	0	33209	
6547	0	33200	
6548	0	33209	
6549	0	33218	
6550	0	33205	
6551	0	33192	
6552	0	33225	
6553	0	33212	
6554	0	33193	
6555	0	33189	
6556	0	33184	
6557	0	33200	
6558	0	33192	
6559	0	33216	
6560	0	33208	
6561	0	33172	
6562	0	33192	
6563	0	33188	
6564	0	33204	
6565	0	33218	
6566	0	33208	
6567	0	33200	
6568	0	33216	
6569	0	33192	
6570	0	33204	
6571	0	33192	
6572	0	33208	
6573	0	33206	
6574	0	33200	
6575	0	33212	
6576	0	33188	
6577	0	33193	
6578	0	33212	
6579	0	33208	
6580	0	33186	
6581	0	33208	
6582	0	33186	
6583	0	33188	
6584	0	33188	
6585	0	33187	
6586	0	33212	
6587	0	33192	
6588	0	33188	
6589	0	33176	
6590	0	33184	
6591	0	33204	
6592	0	33180	
6593	0	33188	
6594	0	33192	
6595	0	33210	
6596	0	33204	
6597	0	33196	
6598	0	33200	
6599	0	33194	
6600	0	33184	
6601	0	33184	
6602	0	33192	
6603	0	33220	
6604	0	33200	
6605	0	33204	
6606	0	33172	
6607	0	33184	
6608	0	33172	
6609	0	33184	
6610	0	33194	
6611	0	33209	
6612	0	33184	
6613	0	33184	
6614	0	33185	
6615	0	33188	
6616	0	33176	
6617	0	33177	
6618	0	33177	
6619	0	33164	
6620	0	33176	
6621	0	33192	
6622	0	33168	
6623	0	33176	
6624	0	33168	
6625	0	33192	
6626	0	33170	
6627	0	33200	
6628	0	33208	
6629	0	33168	
6630	0	33184	
6631	0	33176	
6632	0	33204	
6633	0	33172	
6634	0	33192	
6635	0	33192	
6636	0	33180	
6637	0	33193	
6638	0	33192	
6639	0	33174	
6640	0	33186	
6641	0	33200	
6642	0	33184	
6643	0	33200	
6644	0	33188	
6645	0	33192	
6646	0	33198	
6647	0	33168	
6648	0	33176	
6649	0	33170	
6650	0	33172	
6651	0	33184	
6652	0	33186	
6653	0	33192	
6654	0	33184	
6655	0	33184	
6656	0	33188	
6657	0	33186	
6658	0	33192	
6659	0	33162	
6660	0	33160	
6661	0	33196	
6662	0	33164	
6663	0	33188	
6664	0	33190	
6665	0	33181	
6666	0	33156	
6667	0	33177	
6668	0	33196	
6669	0	33209	
6670	0	33182	
6671	0	33186	
6672	0	33192	
6673	0	33184	
6674	0	33196	
6675	0	33163	
6676	0	33184	
6677	0	33184	
6678	0	33176	
6679	0	33184	
6680	0	33196	
6681	0	33196	
6682	0	33184	
6683	0	33180	
6684	0	33188	
6685	0	33180	
6686	0	33184	
6687	0	33184	
6688	0	33176	
6689	0	33168	
6690	0	33184	
6691	0	33168	
6692	0	33180	
6693	0	33170	
6694	0	33192	
6695	0	33176	
6696	0	33168	
6697	0	33192	
6698	0	33168	
6699	0	33193	
6700	0	33200	
6701	0	33162	
6702	0	33152	
6703	0	33176	
6704	0	33177	
6705	0	33156	
6706	0	33180	
6707	0	33178	
6708	0	33170	
6709	0	33172	
6710	0	33154	
6711	0	33180	
6712	0	33177	
6713	0	33160	
6714	0	33184	
6715	0	33168	
6716	0	33172	
6717	0	33172	
6718	0	33156	
6719	0	33162	
6720	0	33196	
6721	0	33192	
6722	0	33181	
6723	0	33162	
6724	0	33160	
6725	0	33170	
6726	0	33162	
6727	0	33172	
6728	0	33176	
6729	0	33188	
6730	0	33184	
6731	0	33168	
6732	0	33172	
6733	0	33172	
6734	0	33146	
6735	0	33168	
6736	0	33176	
6737	0	33168	
6738	0	33184	
6739	0	33172	
6740	0	33170	
6741	0	33188	
6742	0	33184	
6743	0	33156	
6744	0	33168	
6745	0	33178	
6746	0	33168	
6747	0	33168	
6748	0	33156	
6749	0	33160	
6750	0	33176	
6751	0	33164	
6752	0	33184	
6753	0	33168	
6754	0	33156	
6755	0	33184	
6756	0	33181	
6757	0	33162	
6758	0	33184	
6759	0	33158	
6760	0	33174	
6761	0	33168	
6762	0	33160	
6763	0	33172	
6764	0	33182	
6765	0	33164	
6766	0	33162	
6767	0	33162	
6768	0	33152	
6769	0	33164	
6770	0	33172	
6771	0	33160	
6772	0	33168	
6773	0	33184	
6774	0	33176	
6775	0	33176	
6776	0	33176	
6777	0	33164	
6778	0	33186	
6779	0	33156	
6780	0	33160	
6781	0	33156	
6782	0	33156	
6783	0	33156	
6784	0	33180	
6785	0	33184	
6786	0	33168	
6787	0	33170	
6788	0	33144	
6789	0	33168	
6790	0	33156	
6791	0	33178	
6792	0	33161	
6793	0	33172	
6794	0	33180	
6795	0	33152	
6796	0	33148	
6797	0	33162	
6798	0	33176	
6799	0	33164	
6800	0	33146	
6801	0	33177	
6802	0	33165	
6803	0	33148	
6804	0	33184	
6805	0	33174	
6806	0	33158	
6807	0	33164	
6808	0	33158	
6809	0	33152	
6810	0	33178	
6811	0	33172	
6812	0	33168	
6813	0	33140	
6814	0	33156	
6815	0	33148	
6816	0	33144	
6817	0	33160	
6818	0	33156	
6819	0	33152	
6820	0	33178	
6821	0	33168	
6822	0	33140	
6823	0	33178	
6824	0	33174	
6825	0	33152	
6826	0	33170	
6827	0	33156	
6828	0	33144	
6829	0	33154	
6830	0	33144	
6831	0	33152	
6832	0	33156	
6833	0	33178	
6834	0	33140	
6835	0	33144	
6836	0	33168	
6837	0	33167	
6838	0	33144	
6839	0	33168	
6840	0	33162	
6841	0	33174	
6842	0	33132	
6843	0	33164	
6844	0	33154	
6845	0	33154	
6846	0	33148	
6847	0	33156	
6848	0	33170	
6849	0	33138	
6850	0	33144	
6851	0	33154	
6852	0	33148	
6853	0	33140	
6854	0	33168	
6855	0	33162	
6856	0	33163	
6857	0	33156	
6858	0	33162	
6859	0	33159	
6860	0	33172	
6861	0	33142	
6862	0	33136	
6863	0	33155	
6864	0	33168	
6865	0	33152	
6866	0	33156	
6867	0	33145	
6868	0	33168	
6869	0	33160	
6870	0	33176	
6871	0	33156	
6872	0	33153	
6873	0	33164	
6874	0	33148	
6875	0	33159	
6876	0	33170	
6877	0	33144	
6878	0	33158	
6879	0	33152	
6880	0	33156	
6881	0	33160	
6882	0	33144	
6883	0	33156	
6884	0	33132	
6885	0	33132	
6886	0	33140	
6887	0	33144	
6888	0	33136	
6889	0	33144	
6890	0	33144	
6891	0	33156	
6892	0	33146	
6893	0	33145	
6894	0	33140	
6895	0	33144	
6896	0	33162	
6897	0	33148	
6898	0	33154	
6899	0	33136	
6900	0	33138	
6901	0	33154	
6902	0	33128	
6903	0	33136	
6904	0	33152	
6905	0	33148	
6906	0	33158	
6907	0	33148	
6908	0	33144	
6909	0	33138	
6910	0	33158	
6911	0	33156	
6912	0	33152	
6913	0	33136	
6914	0	33144	
6915	0	33148	
6916	0	33144	
6917	0	33145	
6918	0	33156	
6919	0	33158	
6920	0	33140	
6921	0	33140	
6922	0	33130	
6923	0	33132	
6924	0	33162	
6925	0	33132	
6926	0	33144	
6927	0	33140	
6928	0	33168	
6929	0	33159	
6930	0	33136	
6931	0	33136	
6932	0	33152	
6933	0	33148	
6934	0	33120	
6935	0	33142	
6936	0	33156	
6937	0	33144	
6938	0	33128	
6939	0	33128	
6940	0	33164	
6941	0	33136	
6942	0	33132	
6943	0	33148	
6944	0	33148	
6945	0	33132	
6946	0	33145	
6947	0	33148	
6948	0	33124	
6949	0	33134	
6950	0	33136	
6951	0	33145	
6952	0	33146	
6953	0	33153	
6954	0	33128	
6955	0	33128	
6956	0	33136	
6957	0	33138	
6958	0	33128	
6959	0	33136	
6960	0	33132	
6961	0	33121	
6962	0	33152	
6963	0	33136	
6964	0	33140	
6965	0	33146	
6966	0	33136	
6967	0	33144	
6968	0	33136	
6969	0	33152	
6970	0	33128	
6971	0	33146	
6972	0	33152	
6973	0	33124	
6974	0	33152	
6975	0	33156	
6976	0	33128	
6977	0	33138	
6978	0	33120	
6979	0	33154	
6980	0	33128	
6981	0	33144	
6982	0	33132	
6983	0	33148	
6984	0	33138	
6985	0	33120	
6986	0	33128	
6987	0	33136	
6988	0	33146	
6989	0	33147	
6990	0	33136	
6991	0	33132	
6992	0	33120	
6993	0	33148	
6994	0	33152	
6995	0	33140	
6996	0	33144	
6997	0	33134	
6998	0	33128	
6999	0	33144	
7000	0	33128	
7001	0	33132	
7002	0	33122	
7003	0	33144	
7004	0	33125	
7005	0	33130	
7006	0	33136	
7007	0	33144	
7008	0	33120	
7009	0	33148	
7010	0	33140	
7011	0	33128	
7012	0	33120	
7013	0	33142	
7014	0	33128	
7015	0	33166	
7016	0	33122	
7017	0	33132	
7018	0	33120	
7019	0	33148	
7020	0	33144	
7021	0	33125	
7022	0	33136	
7023	0	33128	
7024	0	33140	
7025	0	33160	
7026	0	33132	
7027	0	33128	
7028	0	33146	
7029	0	33128	
7030	0	33132	
7031	0	33116	
7032	0	33120	
7033	0	33112	
7034	0	33128	
7035	0	33128	
7036	0	33148	
7037	0	33128	
7038	0	33149	
7039	0	33128	
7040	0	33116	
7041	0	33124	
7042	0	33124	
7043	0	33123	
7044	0	33144	
7045	0	33140	
7046	0	33138	
7047	0	33148	
7048	0	33129	
7049	0	33120	
7050	0	33132	
7051	0	33144	
7052	0	33148	
7053	0	33146	
7054	0	33122	
7055	0	33144	
7056	0	33140	
7057	0	33132	
7058	0	33116	
7059	0	33142	
7060	0	33136	
7061	0	33132	
7062	0	33114	
7063	0	33132	
7064	0	33124	
7065	0	33122	
7066	0	33118	
7067	0	33124	
7068	0	33117	
7069	0	33140	
7070	0	33144	
7071	0	33120	
7072	0	33136	
7073	0	33128	
7074	0	33116	
7075	0	33098	
7076	0	33128	
7077	0	33136	
7078	0	33128	
7079	0	33116	
7080	0	33108	
7081	0	33120	
7082	0	33122	
7083	0	33108	
7084	0	33140	
7085	0	33114	
7086	0	33140	
7087	0	33120	
7088	0	33146	
7089	0	33120	
7090	0	33124	
7091	0	33124	
7092	0	33132	
7093	0	33136	
7094	0	33120	
7095	0	33138	
7096	0	33120	
7097	0	33120	
7098	0	33122	
7099	0	33128	
7100	0	33117	
7101	0	33112	
7102	0	33128	
7103	0	33128	
7104	0	33140	
7105	0	33120	
7106	0	33144	
7107	0	33120	
7108	0	33116	
7109	0	33112	
7110	0	33108	
7111	0	33116	
7112	0	33128	
7113	0	33142	
7114	0	33128	
7115	0	33112	
7116	0	33100	
7117	0	33136	
7118	0	33136	
7119	0	33144	
7120	0	33112	
7121	0	33128	
7122	0	33138	
7123	0	33132	
7124	0	33124	
7125	0	33140	
7126	0	33136	
7127	0	33128	
7128	0	33128	
7129	0	33116	
7130	0	33140	
7131	0	33122	
7132	0	33130	
7133	0	33120	
7134	0	33110	
7135	0	33106	
7136	0	33132	
7137	0	33112	
7138	0	33120	
7139	0	33126	
7140	0	33136	
7141	0	33124	
7142	0	33116	
7143	0	33124	
7144	0	33132	
7145	0	33120	
7146	0	33140	
7147	0	33128	
7148	0	33124	
7149	0	33128	
7150	0	33120	
7151	0	33116	
7152	0	33100	
7153	0	33120	
7154	0	33120	
7155	0	33136	
7156	0	33122	
7157	0	33132	
7158	0	33116	
7159	0	33108	
7160	0	33128	
7161	0	33136	
7162	0	33114	
7163	0	33112	
7164	0	33132	
7165	0	33124	
7166	0	33138	
7167	0	33124	
7168	0	33130	
7169	0	33120	
7170	0	33129	
7171	0	33128	
7172	0	33104	
7173	0	33128	
7174	0	33140	
7175	0	33114	
7176	0	33132	
7177	0	33112	
7178	0	33120	
7179	0	33114	
7180	0	33092	
7181	0	33116	
7182	0	33120	
7183	0	33117	
7184	0	33117	
7185	0	33120	
7186	0	33129	
7187	0	33124	
7188	0	33120	
7189	0	33104	
7190	0	33128	
7191	0	33126	
7192	0	33110	
7193	0	33121	
7194	0	33120	
7195	0	33100	
7196	0	33116	
7197	0	33120	
7198	0	33116	
7199	0	33100	
7200	0	33128	
7201	0	33136	
7202	0	33106	
7203	0	33116	
7204	0	33104	
7205	0	33104	
7206	0	33128	
7207	0	33124	
7208	0	33132	
7209	0	33096	
7210	0	33136	
7211	0	33132	
7212	0	33112	
7213	0	33117	
7214	0	33120	
7215	0	33120	
7216	0	33104	
7217	0	33112	
7218	0	33124	
7219	0	33112	
7220	0	33132	
7221	0	33112	
7222	0	33104	
7223	0	33106	
7224	0	33108	
7225	0	33106	
7226	0	33126	
7227	0	33120	
7228	0	33106	
7229	0	33134	
7230	0	33120	
7231	0	33136	
7232	0	33116	
7233	0	33096	
7234	0	33136	
7235	0	33112	
7236	0	33117	
7237	0	33114	
7238	0	33114	
7239	0	33124	
7240	0	33136	
7241	0	33104	
7242	0	33120	
7243	0	33116	
7244	0	33096	
7245	0	33101	
7246	0	33114	
7247	0	33104	
7248	0	33120	
7249	0	33120	
7250	0	33115	
7251	0	33123	
7252	0	33120	
7253	0	33125	
7254	0	33098	
7255	0	33100	
7256	0	33094	
7257	0	33106	
7258	0	33114	
7259	0	33100	
7260	0	33098	
7261	0	33100	
7262	0	33108	
7263	0	33108	
7264	0	33130	
7265	0	33098	
7266	0	33112	
7267	0	33112	
7268	0	33100	
7269	0	33116	
7270	0	33093	
7271	0	33122	
7272	0	33092	
7273	0	33096	
7274	0	33117	
7275	0	33128	
7276	0	33128	
7277	0	33120	
7278	0	33104	
7279	0	33116	
7280	0	33128	
7281	0	33116	
7282	0	33112	
7283	0	33114	
7284	0	33112	
7285	0	33116	
7286	0	33112	
7287	0	33104	
7288	0	33120	
7289	0	33120	
7290	0	33122	
7291	0	33092	
7292	0	33098	
7293	0	33100	
7294	0	33098	
7295	0	33118	
7296	0	33108	
7297	0	33104	
7298	0	33114	
7299	0	33090	
7300	0	33125	
7301	0	33112	
7302	0	33124	
7303	0	33118	
7304	0	33116	
7305	0	33106	
7306	0	33122	
7307	0	33116	
7308	0	33116	
7309	0	33104	
7310	0	33120	
7311	0	33122	
7312	0	33080	
7313	0	33120	
7314	0	33120	
7315	0	33092	
7316	0	33112	
7317	0	33100	
7318	0	33116	
7319	0	33098	
7320	0	33100	
7321	0	33104	
7322	0	33130	
7323	0	33120	
7324	0	33100	
7325	0	33098	
7326	0	33088	
7327	0	33110	
7328	0	33104	
7329	0	33094	
7330	0	33120	
7331	0	33100	
7332	0	33116	
7333	0	33112	
7334	0	33104	
7335	0	33092	
7336	0	33120	
7337	0	33112	
7338	0	33120	
7339	0	33104	
7340	0	33104	
7341	0	33112	
7342	0	33106	
7343	0	33080	
7344	0	33112	
7345	0	33112	
7346	0	33112	
7347	0	33090	
7348	0	33104	
7349	0	33116	
7350	0	33104	
7351	0	33088	
7352	0	33082	
7353	0	33108	
7354	0	33102	
7355	0	33122	
7356	0	33104	
7357	0	33092	
7358	0	33120	
7359	0	33104	
7360	0	33116	
7361	0	33112	
7362	0	33096	
7363	0	33132	
7364	0	33096	
7365	0	33114	
7366	0	33108	
7367	0	33098	
7368	0	33104	
7369	0	33116	
7370	0	33092	
7371	0	33116	
7372	0	33100	
7373	0	33108	
7374	0	33100	
7375	0	33104	
7376	0	33120	
7377	0	33104	
7378	0	33106	
7379	0	33096	
7380	0	33106	
7381	0	33114	
7382	0	33114	
7383	0	33116	
7384	0	33106	
7385	0	33093	
7386	0	33104	
7387	0	33108	
7388	0	33112	
7389	0	33108	
7390	0	33120	
7391	0	33092	
7392	0	33094	
7393	0	33092	
7394	0	33090	
7395	0	33115	
7396	0	33090	
7397	0	33104	
7398	0	33097	
7399	0	33098	
7400	0	33098	
7401	0	33112	
7402	0	33106	
7403	0	33094	
7404	0	33104	
7405	0	33084	
7406	0	33097	
7407	0	33102	
7408	0	33097	
7409	0	33100	
7410	0	33088	
7411	0	33108	
7412	0	33116	
7413	0	33106	
7414	0	33080	
7415	0	33098	
7416	0	33108	
7417	0	33112	
7418	0	33108	
7419	0	33092	
7420	0	33104	
7421	0	33120	
7422	0	33098	
7423	0	33080	
7424	0	33100	
7425	0	33100	
7426	0	33104	
7427	0	33098	
7428	0	33106	
7429	0	33092	
7430	0	33096	
7431	0	33106	
7432	0	33100	
7433	0	33090	
7434	0	33108	
7435	0	33072	
7436	0	33090	
7437	0	33106	
7438	0	33088	
7439	0	33106	
7440	0	33092	
7441	0	33088	
7442	0	33088	
7443	0	33090	
7444	0	33114	
7445	0	33096	
7446	0	33096	
7447	0	33082	
7448	0	33092	
7449	0	33124	
7450	0	33104	
7451	0	33088	
7452	0	33116	
7453	0	33092	
7454	0	33094	
7455	0	33080	
7456	0	33104	
7457	0	33092	
7458	0	33108	
7459	0	33091	
7460	0	33094	
7461	0	33106	
7462	0	33074	
7463	0	33093	
7464	0	33098	
7465	0	33097	
7466	0	33104	
7467	0	33099	
7468	0	33104	
7469	0	33090	
7470	0	33096	
7471	0	33100	
7472	0	33080	
7473	0	33080	
7474	0	33117	
7475	0	33088	
7476	0	33108	
7477	0	33104	
7478	0	33092	
7479	0	33104	
7480	0	33092	
7481	0	33100	
7482	0	33088	
7483	0	33096	
7484	0	33100	
7485	0	33100	
7486	0	33080	
7487	0	33088	
7488	0	33096	
7489	0	33096	
7490	0	33122	
7491	0	33104	
7492	0	33096	
7493	0	33104	
7494	0	33108	
7495	0	33116	
7496	0	33096	
7497	0	33104	
7498	0	33101	
7499	0	33084	
7500	0	33098	
7501	0	33081	
7502	0	33082	
7503	0	33099	
7504	0	33074	
7505	0	33084	
7506	0	33104	
7507	0	33076	
7508	0	33088	
7509	0	33098	
7510	0	33106	
7511	0	33088	
7512	0	33096	
7513	0	33084	
7514	0	33096	
7515	0	33108	
7516	0	33104	
7517	0	33106	
7518	0	33084	
7519	0	33104	
7520	0	33108	
7521	0	33073	
7522	0	33088	
7523	0	33092	
7524	0	33106	
7525	0	33106	
7526	0	33088	
7527	0	33096	
7528	0	33088	
7529	0	33080	
7530	0	33112	
7531	0	33072	
7532	0	33082	
7533	0	33088	
7534	0	33098	
7535	0	33088	
7536	0	33080	
7537	0	33098	
7538	0	33096	
7539	0	33090	
7540	0	33094	
7541	0	33100	
7542	0	33097	
7543	0	33072	
7544	0	33084	
7545	0	33092	
7546	0	33077	
7547	0	33082	
7548	0	33076	
7549	0	33088	
7550	0	33084	
7551	0	33088	
7552	0	33090	
7553	0	33092	
7554	0	33088	
7555	0	33090	
7556	0	33100	
7557	0	33080	
7558	0	33098	
7559	0	33076	
7560	0	33096	
7561	0	33078	
7562	0	33102	
7563	0	33092	
7564	0	33082	
7565	0	33104	
7566	0	33112	
7567	0	33100	
7568	0	33108	
7569	0	33098	
7570	0	33096	
7571	0	33092	
7572	0	33101	
7573	0	33092	
7574	0	33110	
7575	0	33097	
7576	0	33096	
7577	0	33080	
7578	0	33088	
7579	0	33092	
7580	0	33112	
7581	0	33108	
7582	0	33088	
7583	0	33072	
7584	0	33080	
7585	0	33100	
7586	0	33112	
7587	0	33088	
7588	0	33096	
7589	0	33072	
7590	0	33080	
7591	0	33085	
7592	0	33096	
7593	0	33080	
7594	0	33090	
7595	0	33108	
7596	0	33096	
7597	0	33104	
7598	0	33088	
7599	0	33096	
7600	0	33074	
7601	0	33096	
7602	0	33084	
7603	0	33092	
7604	0	33092	
7605	0	33074	
7606	0	33096	
7607	0	33080	
7608	0	33096	
7609	0	33106	
7610	0	33104	
7611	0	33104	
7612	0	33096	
7613	0	33112	
7614	0	33074	
7615	0	33074	
7616	0	33100	
7617	0	33096	
7618	0	33088	
7619	0	33096	
7620	0	33100	
7621	0	33088	
7622	0	33072	
7623	0	33080	
7624	0	33082	
7625	0	33080	
7626	0	33098	
7627	0	33075	
7628	0	33080	
7629	0	33096	
7630	0	33077	
7631	0	33065	
7632	0	33096	
7633	0	33092	
7634	0	33088	
7635	0	33076	
7636	0	33068	
7637	0	33072	
7638	0	33088	
7639	0	33080	
7640	0	33080	
7641	0	33077	
7642	0	33090	
7643	0	33096	
7644	0	33074	
7645	0	33081	
7646	0	33076	
7647	0	33080	
7648	0	33072	
7649	0	33080	
7650	0	33090	
7651	0	33074	
7652	0	33104	
7653	0	33088	
7654	0	33092	
7655	0	33106	
7656	0	33092	
7657	0	33096	
7658	0	33084	
7659	0	33080	
7660	0	33100	
7661	0	33072	
7662	0	33096	
7663	0	33072	
7664	0	33099	
7665	0	33078	
7666	0	33100	
7667	0	33093	
7668	0	33090	
7669	0	33090	
7670	0	33104	
7671	0	33090	
7672	0	33104	
7673	0	33106	
7674	0	33080	
7675	0	33072	
7676	0	33076	
7677	0	33084	
7678	0	33090	
7679	0	33090	
7680	0	33080	
7681	0	33072	
7682	0	33080	
7683	0	33077	
7684	0	33080	
7685	0	33098	
7686	0	33066	
7687	0	33088	
7688	0	33084	
7689	0	33088	
7690	0	33080	
7691	0	33088	
7692	0	33068	
7693	0	33076	
7694	0	33092	
7695	0	33098	
7696	0	33080	
7697	0	33078	
7698	0	33092	
7699	0	33098	
7700	0	33096	
7701	0	33096	
7702	0	33110	
7703	0	33076	
7704	0	33104	
7705	0	33066	
7706	0	33100	
7707	0	33069	
7708	0	33072	
7709	0	33080	
7710	0	33091	
7711	0	33088	
7712	0	33104	
7713	0	33096	
7714	0	33096	
7715	0	33077	
7716	0	33070	
7717	0	33100	
7718	0	33081	
7719	0	33068	
7720	0	33064	
7721	0	33076	
7722	0	33086	
7723	0	33098	
7724	0	33084	
7725	0	33060	
7726	0	33089	
7727	0	33082	
7728	0	33100	
7729	0	33082	
7730	0	33092	
7731	0	33075	
7732	0	33080	
7733	0	33064	
7734	0	33072	
7735	0	33068	
7736	0	33092	
7737	0	33076	
7738	0	33088	
7739	0	33072	
7740	0	33106	
7741	0	33072	
7742	0	33092	
7743	0	33072	
7744	0	33090	
7745	0	33095	
7746	0	33065	
7747	0	33084	
7748	0	33088	
7749	0	33088	
7750	0	33072	
7751	0	33080	
7752	0	33090	
7753	0	33072	
7754	0	33076	
7755	0	33088	
7756	0	33064	
7757	0	33080	
7758	0	33088	
7759	0	33074	
7760	0	33072	
7761	0	33080	
7762	0	33104	
7763	0	33094	
7764	0	33080	
7765	0	33062	
7766	0	33094	
7767	0	33082	
7768	0	33092	
7769	0	33090	
7770	0	33106	
7771	0	33088	
7772	0	33088	
7773	0	33084	
7774	0	33092	
7775	0	33084	
7776	0	33080	
7777	0	33092	
7778	0	33080	
7779	0	33082	
7780	0	33097	
7781	0	33088	
7782	0	33074	
7783	0	33090	
7784	0	33080	
7785	0	33090	
7786	0	33080	
7787	0	33088	
7788	0	33085	
7789	0	33084	
7790	0	33073	
7791	0	33076	
7792	0	33102	
7793	0	33064	
7794	0	33076	
7795	0	33076	
7796	0	33088	
7797	0	33076	
7798	0	33077	
7799	0	33098	
7800	0	33056	
7801	0	33088	
7802	0	33072	
7803	0	33076	
7804	0	33081	
7805	0	33084	
7806	0	33096	
7807	0	33083	
7808	0	33084	
7809	0	33096	
7810	0	33080	
7811	0	33070	
7812	0	33070	
7813	0	33083	
7814	0	33068	
7815	0	33085	
7816	0	33068	
7817	0	33065	
7818	0	33080	
7819	0	33084	
7820	0	33096	
7821	0	33092	
7822	0	33092	
7823	0	33056	
7824	0	33080	
7825	0	33088	
7826	0	33088	
7827	0	33096	
7828	0	33080	
7829	0	33090	
7830	0	33092	
7831	0	33096	
7832	0	33080	
7833	0	33100	
7834	0	33092	
7835	0	33092	
7836	0	33076	
7837	0	33088	
7838	0	33080	
7839	0	33068	
7840	0	33088	
7841	0	33080	
7842	0	33080	
7843	0	33066	
7844	0	33064	
7845	0	33088	
7846	0	33088	
7847	0	33058	
7848	0	33074	
7849	0	33072	
7850	0	33060	
7851	0	33072	
7852	0	33090	
7853	0	33064	
7854	0	33080	
7855	0	33080	
7856	0	33082	
7857	0	33072	
7858	0	33080	
7859	0	33057	
7860	0	33064	
7861	0	33092	
7862	0	33072	
7863	0	33065	
7864	0	33074	
7865	0	33064	
7866	0	33104	
7867	0	33094	
7868	0	33080	
7869	0	33064	
7870	0	33085	
7871	0	33076	
7872	0	33092	
7873	0	33056	
7874	0	33068	
7875	0	33072	
7876	0	33075	
7877	0	33072	
7878	0	33072	
7879	0	33080	
7880	0	33088	
7881	0	33084	
7882	0	33082	
7883	0	33050	
7884	0	33076	
7885	0	33060	
7886	0	33064	
7887	0	33066	
7888	0	33068	
7889	0	33068	
7890	0	33070	
7891	0	33064	
7892	0	33080	
7893	0	33082	
7894	0	33076	
7895	0	33058	
7896	0	33088	
7897	0	33082	
7898	0	33076	
7899	0	33093	
7900	0	33088	
7901	0	33057	
7902	0	33081	
7903	0	33074	
7904	0	33072	
7905	0	33069	
7906	0	33080	
7907	0	33088	
7908	0	33088	
7909	0	33066	
7910	0	33088	
7911	0	33080	
7912	0	33080	
7913	0	33084	
7914	0	33098	
7915	0	33080	
7916	0	33064	
7917	0	33092	
7918	0	33080	
7919	0	33068	
7920	0	33092	
7921	0	33080	
7922	0	33064	
7923	0	33060	
7924	0	33092	
7925	0	33072	
7926	0	33080	
7927	0	33065	
7928	0	33072	
7929	0	33067	
7930	0	33089	
7931	0	33092	
7932	0	33082	
7933	0	33088	
7934	0	33090	
7935	0	33088	
7936	0	33072	
7937	0	33072	
7938	0	33072	
7939	0	33056	
7940	0	33082	
7941	0	33099	
7942	0	33076	
7943	0	33064	
7944	0	33064	
7945	0	33058	
7946	0	33076	
7947	0	33092	
7948	0	33066	
7949	0	33050	
7950	0	33080	
7951	0	33092	
7952	0	33080	
7953	0	33072	
7954	0	33080	
7955	0	33066	
7956	0	33052	
7957	0	33066	
7958	0	33072	
7959	0	33058	
7960	0	33060	
7961	0	33076	
7962	0	33080	
7963	0	33060	
7964	0	33076	
7965	0	33088	
7966	0	33090	
7967	0	33098	
7968	0	33082	
7969	0	33074	
7970	0	33080	
7971	0	33066	
7972	0	33094	
7973	0	33056	
7974	0	33092	
7975	0	33060	
7976	0	33056	
7977	0	33088	
7978	0	33078	
7979	0	33060	
7980	0	33056	
7981	0	33080	
7982	0	33060	
7983	0	33084	
7984	0	33080	
7985	0	33084	
7986	0	33064	
7987	0	33092	
7988	0	33072	
7989	0	33068	
7990	0	33051	
7991	0	33068	
7992	0	33080	
7993	0	33074	
7994	0	33076	
7995	0	33076	
7996	0	33073	
7997	0	33057	
7998	0	33076	
7999	0	33072	
8000	0	33064	
8001	0	33093	
8002	0	33100	
8003	0	33060	
8004	0	33080	
8005	0	33072	
8006	0	33056	
8007	0	33074	
8008	0	33064	
8009	0	33090	
8010	0	33084	
8011	0	33084	
8012	0	33065	
8013	0	33072	
8014	0	33092	
8015	0	33080	
8016	0	33074	
8017	0	33072	
8018	0	33072	
8019	0	33064	
8020	0	33056	
8021	0	33053	
8022	0	33060	
8023	0	33074	
8024	0	33080	
8025	0	33090	
8026	0	33076	
8027	0	33064	
8028	0	33080	
8029	0	33068	
8030	0	33080	
8031	0	33056	
8032	0	33064	
8033	0	33072	
8034	0	33088	
8035	0	33060	
8036	0	33085	
8037	0	33060	
8038	0	33074	
8039	0	33064	
8040	0	33080	
8041	0	33068	
8042	0	33090	
8043	0	33088	
8044	0	33072	
8045	0	33058	
8046	0	33080	
8047	0	33072	
8048	0	33070	
8049	0	33090	
8050	0	33060	
8051	0	33081	
8052	0	33072	
8053	0	33056	
8054	0	33072	
8055	0	33060	
8056	0	33068	
8057	0	33070	
8058	0	33064	
8059	0	33088	
8060	0	33056	
8061	0	33084	
8062	0	33065	
8063	0	33064	
8064	0	33074	
8065	0	33082	
8066	0	33072	
8067	0	33074	
8068	0	33064	
8069	0	33082	
8070	0	33080	
8071	0	33064	
8072	0	33080	
8073	0	33072	
8074	0	33058	
8075	0	33072	
8076	0	33072	
8077	0	33066	
8078	0	33068	
8079	0	33090	
8080	0	33056	
8081	0	33088	
8082	0	33088	
8083	0	33094	
8084	0	33064	
8085	0	33054	
8086	0	33072	
8087	0	33088	
8088	0	33076	
8089	0	33088	
8090	0	33072	
8091	0	33064	
8092	0	33068	
8093	0	33076	
8094	0	33076	
8095	0	33076	
8096	0	33082	
8097	0	33088	
8098	0	33072	
8099	0	33084	
8100	0	33070	
8101	0	33084	
8102	0	33074	
8103	0	33082	
8104	0	33072	
8105	0	33070	
8106	0	33066	
8107	0	33066	
8108	0	33076	
8109	0	33076	
8110	0	33090	
8111	0	33090	
8112	0	33068	
8113	0	33082	
8114	0	33088	
8115	0	33060	
8116	0	33080	
8117	0	33084	
8118	0	33074	
8119	0	33076	
8120	0	33050	
8121	0	33064	
8122	0	33084	
8123	0	33060	
8124	0	33092	
8125	0	33068	
8126	0	33074	
8127	0	33076	
8128	0	33072	
8129	0	33048	
8130	0	33072	
8131	0	33088	
8132	0	33084	
8133	0	33082	
8134	0	33096	
8135	0	33072	
8136	0	33080	
8137	0	33068	
8138	0	33064	
8139	0	33080	
8140	0	33060	
8141	0	33088	
8142	0	33072	
8143	0	33049	
8144	0	33072	
8145	0	33064	
8146	0	33080	
8147	0	33064	
8148	0	33080	
8149	0	33068	
8150	0	33076	
8151	0	33064	
8152	0	33088	
8153	0	33072	
8154	0	33060	
8155	0	33076	
8156	0	33064	
8157	0	33060	
8158	0	33080	
8159	0	33080	
8160	0	33090	
8161	0	33066	
8162	0	33084	
8163	0	33060	
8164	0	33081	
8165	0	33078	
8166	0	33080	
8167	0	33064	
8168	0	33070	
8169	0	33096	
8170	0	33074	
8171	0	33064	
8172	0	33048	
8173	0	33064	
8174	0	33056	
8175	0	33090	
8176	0	33092	
8177	0	33064	
8178	0	33075	
8179	0	33072	
8180	0	33066	
8181	0	33068	
8182	0	33056	
8183	0	33048	
8184	0	33064	
8185	0	33080	
8186	0	33048	
8187	0	33056	
8188	0	33080	
8189	0	33082	
8190	0	33080	
8191	0	33066	
8192	0	33088	
8193	0	33044	
8194	0	33076	
8195	0	33074	
8196	0	33060	
8197	0	33088	
8198	0	33076	
8199	0	33078	
8200	0	33068	
8201	0	33082	
8202	0	33074	
8203	0	33060	
8204	0	33060	
8205	0	33074	
8206	0	33056	
8207	0	33056	
8208	0	33072	
8209	0	33064	
8210	0	33070	
8211	0	33084	
8212	0	33080	
8213	0	33070	
8214	0	33060	
8215	0	33096	
8216	0	33060	
8217	0	33076	
8218	0	33068	
8219	0	33072	
8220	0	33080	
8221	0	33070	
8222	0	33062	
8223	0	33063	
8224	0	33066	
8225	0	33083	
8226	0	33076	
8227	0	33040	
8228	0	33064	
8229	0	33066	
8230	0	33048	
8231	0	33061	
8232	0	33080	
8233	0	33068	
8234	0	33082	
8235	0	33090	
8236	0	33070	
8237	0	33068	
8238	0	33082	
8239	0	33060	
8240	0	33056	
8241	0	33064	
8242	0	33099	
8243	0	33066	
8244	0	33072	
8245	0	33077	
8246	0	33072	
8247	0	33064	
8248	0	33060	
8249	0	33074	
8250	0	33081	
8251	0	33064	
8252	0	33080	
8253	0	33060	
8254	0	33068	
8255	0	33064	
8256	0	33074	
8257	0	33068	
8258	0	33072	
8259	0	33056	
8260	0	33068	
8261	0	33082	
8262	0	33084	
8263	0	33068	
8264	0	33056	
8265	0	33068	
8266	0	33077	
8267	0	33064	
8268	0	33068	
8269	0	33077	
8270	0	33072	
8271	0	33072	
8272	0	33064	
8273	0	33080	
8274	0	33056	
8275	0	33064	
8276	0	33072	
8277	0	33082	
8278	0	33064	
8279	0	33076	
8280	0	33072	
8281	0	33068	
8282	0	33064	
8283	0	33064	
8284	0	33060	
8285	0	33058	
8286	0	33080	
8287	0	33064	
8288	0	33068	
8289	0	33064	
8290	0	33068	
8291	0	33070	
8292	0	33072	
8293	0	33074	
8294	0	33080	
8295	0	33076	
8296	0	33068	
8297	0	33064	
8298	0	33058	
8299	0	33056	
8300	0	33074	
8301	0	33060	
8302	0	33060	
8303	0	33068	
8304	0	33064	
8305	0	33056	
8306	0	33080	
8307	0	33077	
8308	0	33069	
8309	0	33068	
8310	0	33066	
8311	0	33070	
8312	0	33080	
8313	0	33080	
8314	0	33069	
8315	0	33072	
8316	0	33078	
8317	0	33073	
8318	0	33066	
8319	0	33074	
8320	0	33057	
8321	0	33064	
8322	0	33064	
8323	0	33056	
8324	0	33068	
8325	0	33064	
8326	0	33056	
8327	0	33064	
8328	0	33076	
8329	0	33072	
8330	0	33065	
8331	0	33072	
8332	0	33056	
8333	0	33068	
8334	0	33072	
8335	0	33064	
8336	0	33060	
8337	0	33068	
8338	0	33072	
8339	0	33070	
8340	0	33072	
8341	0	33064	
8342	0	33072	
8343	0	33072	
8344	0	33060	
8345	0	33070	
8346	0	33070	
8347	0	33091	
8348	0	33068	
8349	0	33066	
8350	0	33060	
8351	0	33080	
8352	0	33064	
8353	0	33072	
8354	0	33092	
8355	0	33064	
8356	0	33069	
8357	0	33074	
8358	0	33080	
8359	0	33056	
8360	0	33088	
8361	0	33072	
8362	0	33056	
8363	0	33086	
8364	0	33058	
8365	0	33056	
8366	0	33060	
8367	0	33082	
8368	0	33076	
8369	0	33065	
8370	0	33064	
8371	0	33084	
8372	0	33070	
8373	0	33064	
8374	0	33072	
8375	0	33064	
8376	0	33056	
8377	0	33068	
8378	0	33068	
8379	0	33060	
8380	0	33072	
8381	0	33080	
8382	0	33066	
8383	0	33075	
8384	0	33074	
8385	0	33072	
8386	0	33060	
8387	0	33064	
8388	0	33064	
8389	0	33049	
8390	0	33072	
8391	0	33088	
8392	0	33072	
8393	0	33064	
8394	0	33076	
8395	0	33075	
8396	0	33068	
8397	0	33072	
8398	0	33068	
8399	0	33056	
8400	0	33049	
8401	0	33084	
8402	0	33070	
8403	0	33060	
8404	0	33060	
8405	0	33092	
8406	0	33081	
8407	0	33052	
8408	0	33058	
8409	0	33076	
8410	0	33072	
8411	0	33082	
8412	0	33052	
8413	0	33048	
8414	0	33048	
8415	0	33090	
8416	0	33081	
8417	0	33054	
8418	0	33080	
8419	0	33061	
8420	0	33091	
8421	0	33060	
8422	0	33066	
8423	0	33088	
8424	0	33080	
8425	0	33069	
8426	0	33056	
8427	0	33064	
8428	0	33072	
8429	0	33092	
8430	0	33084	
8431	0	33084	
8432	0	33074	
8433	0	33096	
8434	0	33064	
8435	0	33088	
8436	0	33056	
8437	0	33072	
8438	0	33072	
8439	0	33082	
8440	0	33068	
8441	0	33052	
8442	0	33088	
8443	0	33072	
8444	0	33054	
8445	0	33056	
8446	0	33066	
8447	0	33056	
8448	0	33064	
8449	0	33076	
8450	0	33084	
8451	0	33082	
8452	0	33064	
8453	0	33084	
8454	0	33071	
8455	0	33064	
8456	0	33056	
8457	0	33069	
8458	0	33073	
8459	0	33058	
8460	0	33048	
8461	0	33060	
8462	0	33080	
8463	0	33048	
8464	0	33048	
8465	0	33056	
8466	0	33080	
8467	0	33080	
8468	0	33060	
8469	0	33068	
8470	0	33070	
8471	0	33061	
8472	0	33056	
8473	0	33052	
8474	0	33050	
8475	0	33080	
8476	0	33084	
8477	0	33080	
8478	0	33072	
8479	0	33080	
8480	0	33060	
8481	0	33072	
8482	0	33082	
8483	0	33056	
8484	0	33076	
8485	0	33080	
8486	0	33053	
8487	0	33054	
8488	0	33064	
8489	0	33064	
8490	0	33068	
8491	0	33084	
8492	0	33072	
8493	0	33064	
8494	0	33074	
8495	0	33060	
8496	0	33064	
8497	0	33074	
8498	0	33072	
8499	0	33064	
8500	0	33061	
8501	0	33080	
8502	0	33056	
8503	0	33064	
8504	0	33054	
8505	0	33072	
8506	0	33064	
8507	0	33066	
8508	0	33072	
8509	0	33066	
8510	0	33076	
8511	0	33088	
8512	0	33060	
8513	0	33046	
8514	0	33082	
8515	0	33053	
8516	0	33068	
8517	0	33080	
8518	0	33066	
8519	0	33068	
8520	0	33050	
8521	0	33074	
8522	0	33078	
8523	0	33082	
8524	0	33056	
8525	0	33080	
8526	0	33090	
8527	0	33066	
8528	0	33070	
8529	0	33056	
8530	0	33056	
8531	0	33068	
8532	0	33072	
8533	0	33074	
8534	0	33080	
8535	0	33088	
8536	0	33088	
8537	0	33058	
8538	0	33080	
8539	0	33048	
8540	0	33076	
8541	0	33060	
8542	0	33044	
8543	0	33084	
8544	0	33068	
8545	0	33040	
8546	0	33064	
8547	0	33076	
8548	0	33088	
8549	0	33080	
8550	0	33074	
8551	0	33074	
8552	0	33076	
8553	0	33056	
8554	0	33053	
8555	0	33048	
8556	0	33085	
8557	0	33076	
8558	0	33064	
8559	0	33081	
8560	0	33064	
8561	0	33092	
8562	0	33068	
8563	0	33080	
8564	0	33092	
8565	0	33068	
8566	0	33064	
8567	0	33048	
8568	0	33076	
8569	0	33066	
8570	0	33076	
8571	0	33048	
8572	0	33084	
8573	0	33056	
8574	0	33068	
8575	0	33068	
8576	0	33073	
8577	0	33072	
8578	0	33081	
8579	0	33080	
8580	0	33060	
8581	0	33080	
8582	0	33073	
8583	0	33074	
8584	0	33080	
8585	0	33080	
8586	0	33088	
8587	0	33056	
8588	0	33068	
8589	0	33064	
8590	0	33056	
8591	0	33058	
8592	0	33080	
8593	0	33074	
8594	0	33050	
8595	0	33084	
8596	0	33052	
8597	0	33064	
8598	0	33076	
8599	0	33068	
8600	0	33080	
8601	0	33097	
8602	0	33062	
8603	0	33066	
8604	0	33056	
8605	0	33095	
8606	0	33072	
8607	0	33052	
8608	0	33064	
8609	0	33072	
8610	0	33076	
8611	0	33056	
8612	0	33056	
